nSeq,I1,I2,O1,O2,A1,A1_filtrado,A1_normalizado
0,0,0,0,0,509,507,-0.048218163387961636
1,0,0,0,0,507,508,0.038389117939077344
2,0,0,0,0,508,507,-0.048218163387961636
3,0,0,0,0,505,507,-0.048218163387961636
4,0,0,0,0,507,507,-0.048218163387961636
5,0,0,0,0,512,507,-0.048218163387961636
6,0,0,0,0,507,507,-0.048218163387961636
7,0,0,0,0,506,507,-0.048218163387961636
8,0,0,0,0,508,508,0.038389117939077344
9,0,0,0,0,510,508,0.038389117939077344
10,0,0,0,0,506,506,-0.1348254447150006
11,0,0,0,0,506,506,-0.1348254447150006
12,0,0,0,0,508,506,-0.1348254447150006
13,0,0,0,0,504,505,-0.2214327260420396
14,0,0,0,0,505,504,-0.30804000736907855
15,0,0,0,0,504,505,-0.2214327260420396
0,0,0,0,0,505,504,-0.30804000736907855
1,0,0,0,0,504,504,-0.30804000736907855
2,0,0,0,0,504,504,-0.30804000736907855
3,0,0,0,0,506,506,-0.1348254447150006
4,0,0,0,0,509,509,0.12499639926611632
5,0,0,0,0,509,509,0.12499639926611632
6,0,0,0,0,510,510,0.2116036805931553
7,0,0,0,0,510,510,0.2116036805931553
8,0,0,0,0,511,511,0.2982109619201943
9,0,0,0,0,511,511,0.2982109619201943
10,0,0,0,0,511,511,0.2982109619201943
11,0,0,0,0,507,507,-0.048218163387961636
12,0,0,0,0,506,506,-0.1348254447150006
13,0,0,0,0,505,505,-0.2214327260420396
14,0,0,0,0,503,505,-0.2214327260420396
15,0,0,0,0,506,506,-0.1348254447150006
0,0,0,0,0,506,506,-0.1348254447150006
1,0,0,0,0,505,506,-0.1348254447150006
2,0,0,0,0,507,507,-0.048218163387961636
3,0,0,0,0,508,507,-0.048218163387961636
4,0,0,0,0,507,507,-0.048218163387961636
5,0,0,0,0,507,507,-0.048218163387961636
6,0,0,0,0,506,507,-0.048218163387961636
7,0,0,0,0,509,508,0.038389117939077344
8,0,0,0,0,508,508,0.038389117939077344
9,0,0,0,0,504,506,-0.1348254447150006
10,0,0,0,0,506,505,-0.2214327260420396
11,0,0,0,0,505,505,-0.2214327260420396
12,0,0,0,0,505,505,-0.2214327260420396
13,0,0,0,0,511,511,0.2982109619201943
14,0,0,0,0,519,511,0.2982109619201943
15,0,0,0,0,508,508,0.038389117939077344
0,0,0,0,0,499,499,-0.7410764140042735
1,0,0,0,0,493,493,-1.2607201019665073
2,0,0,0,0,491,493,-1.2607201019665073
3,0,0,0,0,507,507,-0.048218163387961636
4,0,0,0,0,509,507,-0.048218163387961636
5,0,0,0,0,507,509,0.12499639926611632
6,0,0,0,0,514,509,0.12499639926611632
7,0,0,0,0,509,509,0.12499639926611632
8,0,0,0,0,506,506,-0.1348254447150006
9,0,0,0,0,505,505,-0.2214327260420396
10,0,0,0,0,504,504,-0.30804000736907855
11,0,0,0,0,503,503,-0.39464728869611754
12,0,0,0,0,500,500,-0.6544691326772345
13,0,0,0,0,496,500,-0.6544691326772345
14,0,0,0,0,501,501,-0.5678618513501955
15,0,0,0,0,510,510,0.2116036805931553
0,0,0,0,0,519,519,0.9910692125365062
1,0,0,0,0,525,519,0.9910692125365062
2,0,0,0,0,517,517,0.8178546498824282
3,0,0,0,0,513,513,0.4714255245742722
4,0,0,0,0,503,503,-0.39464728869611754
5,0,0,0,0,501,503,-0.39464728869611754
6,0,0,0,0,505,504,-0.30804000736907855
7,0,0,0,0,504,505,-0.2214327260420396
8,0,0,0,0,508,504,-0.30804000736907855
9,0,0,0,0,504,504,-0.30804000736907855
10,0,0,0,0,503,504,-0.30804000736907855
11,0,0,0,0,506,506,-0.1348254447150006
12,0,0,0,0,509,509,0.12499639926611632
13,0,0,0,0,514,514,0.5580328059013112
14,0,0,0,0,514,514,0.5580328059013112
15,0,0,0,0,508,511,0.2982109619201943
0,0,0,0,0,511,509,0.12499639926611632
1,0,0,0,0,509,509,0.12499639926611632
2,0,0,0,0,507,509,0.12499639926611632
3,0,0,0,0,509,507,-0.048218163387961636
4,0,0,0,0,503,504,-0.30804000736907855
5,0,0,0,0,504,504,-0.30804000736907855
6,0,0,0,0,504,504,-0.30804000736907855
7,0,0,0,0,511,511,0.2982109619201943
8,0,0,0,0,516,511,0.2982109619201943
9,0,0,0,0,510,510,0.2116036805931553
10,0,0,0,0,510,510,0.2116036805931553
11,0,0,0,0,511,511,0.2982109619201943
12,0,0,0,0,516,513,0.4714255245742722
13,0,0,0,0,513,513,0.4714255245742722
14,0,0,0,0,499,502,-0.4812545700231565
15,0,0,0,0,502,502,-0.4812545700231565
0,0,0,0,0,505,504,-0.30804000736907855
1,0,0,0,0,504,504,-0.30804000736907855
2,0,0,0,0,504,504,-0.30804000736907855
3,0,0,0,0,508,508,0.038389117939077344
4,0,0,0,0,508,508,0.038389117939077344
5,0,0,0,0,508,508,0.038389117939077344
6,0,0,0,0,515,515,0.6446400872283502
7,0,0,0,0,518,515,0.6446400872283502
8,0,0,0,0,515,515,0.6446400872283502
9,0,0,0,0,513,513,0.4714255245742722
10,0,0,0,0,498,501,-0.5678618513501955
11,0,0,0,0,501,501,-0.5678618513501955
12,0,0,0,0,507,507,-0.048218163387961636
13,0,0,0,0,508,508,0.038389117939077344
14,0,0,0,0,513,513,0.4714255245742722
15,0,0,0,0,516,513,0.4714255245742722
0,0,0,0,0,509,509,0.12499639926611632
1,0,0,0,0,506,509,0.12499639926611632
2,0,0,0,0,509,507,-0.048218163387961636
3,0,0,0,0,507,508,0.038389117939077344
4,0,0,0,0,508,508,0.038389117939077344
5,0,0,0,0,513,513,0.4714255245742722
6,0,0,0,0,513,513,0.4714255245742722
7,0,0,0,0,511,511,0.2982109619201943
8,0,0,0,0,509,509,0.12499639926611632
9,0,0,0,0,508,508,0.038389117939077344
10,0,0,0,0,507,508,0.038389117939077344
11,0,0,0,0,509,509,0.12499639926611632
12,0,0,0,0,509,509,0.12499639926611632
13,0,0,0,0,508,508,0.038389117939077344
14,0,0,0,0,506,508,0.038389117939077344
15,0,0,0,0,508,508,0.038389117939077344
0,0,0,0,0,508,508,0.038389117939077344
1,0,0,0,0,503,508,0.038389117939077344
2,0,0,0,0,509,505,-0.2214327260420396
3,0,0,0,0,505,505,-0.2214327260420396
4,0,0,0,0,505,505,-0.2214327260420396
5,0,0,0,0,507,505,-0.2214327260420396
6,0,0,0,0,502,505,-0.2214327260420396
7,0,0,0,0,505,505,-0.2214327260420396
8,0,0,0,0,506,506,-0.1348254447150006
9,0,0,0,0,508,508,0.038389117939077344
10,0,0,0,0,513,510,0.2116036805931553
11,0,0,0,0,510,510,0.2116036805931553
12,0,0,0,0,508,508,0.038389117939077344
13,0,0,0,0,506,507,-0.048218163387961636
14,0,0,0,0,507,506,-0.1348254447150006
15,0,0,0,0,504,506,-0.1348254447150006
0,0,0,0,0,506,506,-0.1348254447150006
1,0,0,0,0,507,507,-0.048218163387961636
2,0,0,0,0,507,507,-0.048218163387961636
3,0,0,0,0,505,505,-0.2214327260420396
4,0,0,0,0,505,505,-0.2214327260420396
5,0,0,0,0,500,500,-0.6544691326772345
6,0,0,0,0,500,500,-0.6544691326772345
7,0,0,0,0,502,500,-0.6544691326772345
8,0,0,0,0,498,498,-0.8276836953313125
9,0,0,0,0,496,498,-0.8276836953313125
10,0,0,0,0,506,506,-0.1348254447150006
11,0,0,0,0,516,516,0.7312473685553892
12,0,0,0,0,530,525,1.51071290049874
13,0,0,0,0,525,525,1.51071290049874
14,0,0,0,0,505,507,-0.048218163387961636
15,0,0,0,0,507,507,-0.048218163387961636
0,0,0,0,0,507,507,-0.048218163387961636
1,0,0,0,0,505,505,-0.2214327260420396
2,0,0,0,0,504,505,-0.2214327260420396
3,0,0,0,0,507,507,-0.048218163387961636
4,0,0,0,0,508,508,0.038389117939077344
5,0,0,0,0,508,508,0.038389117939077344
6,0,0,0,0,504,505,-0.2214327260420396
7,0,0,0,0,505,505,-0.2214327260420396
8,0,0,0,0,509,509,0.12499639926611632
9,0,0,0,0,510,509,0.12499639926611632
10,0,0,0,0,509,509,0.12499639926611632
11,0,0,0,0,507,507,-0.048218163387961636
12,0,0,0,0,506,506,-0.1348254447150006
13,0,0,0,0,505,505,-0.2214327260420396
14,0,0,0,0,504,504,-0.30804000736907855
15,0,0,0,0,504,504,-0.30804000736907855
0,0,0,0,0,497,498,-0.8276836953313125
1,0,0,0,0,498,498,-0.8276836953313125
2,0,0,0,0,507,507,-0.048218163387961636
3,0,0,0,0,518,518,0.9044619312094672
4,0,0,0,0,525,518,0.9044619312094672
5,0,0,0,0,514,514,0.5580328059013112
6,0,0,0,0,513,513,0.4714255245742722
7,0,0,0,0,510,510,0.2116036805931553
8,0,0,0,0,505,505,-0.2214327260420396
9,0,0,0,0,504,505,-0.2214327260420396
10,0,0,0,0,510,510,0.2116036805931553
11,0,0,0,0,511,510,0.2116036805931553
12,0,0,0,0,510,510,0.2116036805931553
13,0,0,0,0,508,508,0.038389117939077344
14,0,0,0,0,507,507,-0.048218163387961636
15,0,0,0,0,507,507,-0.048218163387961636
0,0,0,0,0,510,507,-0.048218163387961636
1,0,0,0,0,506,506,-0.1348254447150006
2,0,0,0,0,504,504,-0.30804000736907855
3,0,0,0,0,503,503,-0.39464728869611754
4,0,0,0,0,503,503,-0.39464728869611754
5,0,0,0,0,506,506,-0.1348254447150006
6,0,0,0,0,510,509,0.12499639926611632
7,0,0,0,0,509,509,0.12499639926611632
8,0,0,0,0,505,505,-0.2214327260420396
9,0,0,0,0,502,505,-0.2214327260420396
10,0,0,0,0,508,508,0.038389117939077344
11,0,0,0,0,510,510,0.2116036805931553
12,0,0,0,0,513,510,0.2116036805931553
13,0,0,0,0,509,509,0.12499639926611632
14,0,0,0,0,508,508,0.038389117939077344
15,0,0,0,0,508,508,0.038389117939077344
0,0,0,0,0,509,508,0.038389117939077344
1,0,0,0,0,508,508,0.038389117939077344
2,0,0,0,0,507,507,-0.048218163387961636
3,0,0,0,0,506,506,-0.1348254447150006
4,0,0,0,0,505,505,-0.2214327260420396
5,0,0,0,0,504,504,-0.30804000736907855
6,0,0,0,0,503,504,-0.30804000736907855
7,0,0,0,0,507,506,-0.1348254447150006
8,0,0,0,0,506,507,-0.048218163387961636
9,0,0,0,0,508,506,-0.1348254447150006
10,0,0,0,0,506,507,-0.048218163387961636
11,0,0,0,0,507,506,-0.1348254447150006
12,0,0,0,0,506,506,-0.1348254447150006
13,0,0,0,0,506,506,-0.1348254447150006
14,0,0,0,0,504,506,-0.1348254447150006
15,0,0,0,0,507,507,-0.048218163387961636
0,0,0,0,0,512,512,0.38481824324723324
1,0,0,0,0,515,515,0.6446400872283502
2,0,0,0,0,524,515,0.6446400872283502
3,0,0,0,0,515,515,0.6446400872283502
4,0,0,0,0,509,509,0.12499639926611632
5,0,0,0,0,506,506,-0.1348254447150006
6,0,0,0,0,504,504,-0.30804000736907855
7,0,0,0,0,504,504,-0.30804000736907855
8,0,0,0,0,503,504,-0.30804000736907855
9,0,0,0,0,504,504,-0.30804000736907855
10,0,0,0,0,505,505,-0.2214327260420396
11,0,0,0,0,509,505,-0.2214327260420396
12,0,0,0,0,503,507,-0.048218163387961636
13,0,0,0,0,507,504,-0.30804000736907855
14,0,0,0,0,504,507,-0.048218163387961636
15,0,0,0,0,510,507,-0.048218163387961636
0,0,0,0,0,507,507,-0.048218163387961636
1,0,0,0,0,507,507,-0.048218163387961636
2,0,0,0,0,508,508,0.038389117939077344
3,0,0,0,0,510,508,0.038389117939077344
4,0,0,0,0,505,505,-0.2214327260420396
5,0,0,0,0,503,505,-0.2214327260420396
6,0,0,0,0,506,506,-0.1348254447150006
7,0,0,0,0,508,508,0.038389117939077344
8,0,0,0,0,508,508,0.038389117939077344
9,0,0,0,0,505,507,-0.048218163387961636
10,0,0,0,0,507,507,-0.048218163387961636
11,0,0,0,0,507,507,-0.048218163387961636
12,0,0,0,0,507,507,-0.048218163387961636
13,0,0,0,0,502,507,-0.048218163387961636
14,0,0,0,0,508,508,0.038389117939077344
15,0,0,0,0,510,508,0.038389117939077344
0,0,0,0,0,502,502,-0.4812545700231565
1,0,0,0,0,502,502,-0.4812545700231565
2,0,0,0,0,504,504,-0.30804000736907855
3,0,0,0,0,504,504,-0.30804000736907855
4,0,0,0,0,510,508,0.038389117939077344
5,0,0,0,0,508,510,0.2116036805931553
6,0,0,0,0,513,513,0.4714255245742722
7,0,0,0,0,515,515,0.6446400872283502
8,0,0,0,0,516,515,0.6446400872283502
9,0,0,0,0,513,513,0.4714255245742722
10,0,0,0,0,509,509,0.12499639926611632
11,0,0,0,0,508,508,0.038389117939077344
12,0,0,0,0,504,504,-0.30804000736907855
13,0,0,0,0,501,503,-0.39464728869611754
14,0,0,0,0,503,501,-0.5678618513501955
15,0,0,0,0,500,500,-0.6544691326772345
0,0,0,0,0,499,500,-0.6544691326772345
1,0,0,0,0,508,507,-0.048218163387961636
2,0,0,0,0,507,507,-0.048218163387961636
3,0,0,0,0,506,506,-0.1348254447150006
4,0,0,0,0,502,505,-0.2214327260420396
5,0,0,0,0,505,505,-0.2214327260420396
6,0,0,0,0,505,505,-0.2214327260420396
7,0,0,0,0,505,505,-0.2214327260420396
8,0,0,0,0,509,509,0.12499639926611632
9,0,0,0,0,509,509,0.12499639926611632
10,0,0,0,0,506,509,0.12499639926611632
11,0,0,0,0,510,508,0.038389117939077344
12,0,0,0,0,508,509,0.12499639926611632
13,0,0,0,0,509,508,0.038389117939077344
14,0,0,0,0,505,505,-0.2214327260420396
15,0,0,0,0,505,505,-0.2214327260420396
0,0,0,0,0,506,506,-0.1348254447150006
1,0,0,0,0,506,506,-0.1348254447150006
2,0,0,0,0,504,504,-0.30804000736907855
3,0,0,0,0,500,504,-0.30804000736907855
4,0,0,0,0,506,506,-0.1348254447150006
5,0,0,0,0,506,506,-0.1348254447150006
6,0,0,0,0,505,505,-0.2214327260420396
7,0,0,0,0,504,504,-0.30804000736907855
8,0,0,0,0,504,504,-0.30804000736907855
9,0,0,0,0,507,507,-0.048218163387961636
10,0,0,0,0,508,507,-0.048218163387961636
11,0,0,0,0,505,507,-0.048218163387961636
12,0,0,0,0,507,505,-0.2214327260420396
13,0,0,0,0,504,504,-0.30804000736907855
14,0,0,0,0,503,504,-0.30804000736907855
15,0,0,0,0,506,506,-0.1348254447150006
0,0,0,0,0,508,508,0.038389117939077344
1,0,0,0,0,510,508,0.038389117939077344
2,0,0,0,0,507,507,-0.048218163387961636
3,0,0,0,0,501,507,-0.048218163387961636
4,0,0,0,0,514,514,0.5580328059013112
5,0,0,0,0,527,516,0.7312473685553892
6,0,0,0,0,516,516,0.7312473685553892
7,0,0,0,0,513,513,0.4714255245742722
8,0,0,0,0,512,512,0.38481824324723324
9,0,0,0,0,512,512,0.38481824324723324
10,0,0,0,0,511,511,0.2982109619201943
11,0,0,0,0,500,502,-0.4812545700231565
12,0,0,0,0,502,502,-0.4812545700231565
13,0,0,0,0,502,502,-0.4812545700231565
14,0,0,0,0,511,511,0.2982109619201943
15,0,0,0,0,515,515,0.6446400872283502
0,0,0,0,0,515,515,0.6446400872283502
1,0,0,0,0,517,517,0.8178546498824282
2,0,0,0,0,520,517,0.8178546498824282
3,0,0,0,0,509,509,0.12499639926611632
4,0,0,0,0,504,504,-0.30804000736907855
5,0,0,0,0,496,496,-1.0008982579853904
6,0,0,0,0,490,496,-1.0008982579853904
7,0,0,0,0,503,502,-0.4812545700231565
8,0,0,0,0,502,502,-0.4812545700231565
9,0,0,0,0,499,502,-0.4812545700231565
10,0,0,0,0,504,503,-0.39464728869611754
11,0,0,0,0,503,504,-0.30804000736907855
12,0,0,0,0,505,505,-0.2214327260420396
13,0,0,0,0,506,506,-0.1348254447150006
14,0,0,0,0,513,513,0.4714255245742722
15,0,0,0,0,515,513,0.4714255245742722
0,0,0,0,0,513,513,0.4714255245742722
1,0,0,0,0,504,504,-0.30804000736907855
2,0,0,0,0,503,504,-0.30804000736907855
3,0,0,0,0,507,503,-0.39464728869611754
4,0,0,0,0,498,498,-0.8276836953313125
5,0,0,0,0,497,498,-0.8276836953313125
6,0,0,0,0,504,504,-0.30804000736907855
7,0,0,0,0,510,510,0.2116036805931553
8,0,0,0,0,518,516,0.7312473685553892
9,0,0,0,0,516,517,0.8178546498824282
10,0,0,0,0,517,517,0.8178546498824282
11,0,0,0,0,521,517,0.8178546498824282
12,0,0,0,0,516,516,0.7312473685553892
13,0,0,0,0,507,507,-0.048218163387961636
14,0,0,0,0,505,505,-0.2214327260420396
15,0,0,0,0,502,505,-0.2214327260420396
0,0,0,0,0,505,502,-0.4812545700231565
1,0,0,0,0,502,502,-0.4812545700231565
2,0,0,0,0,500,502,-0.4812545700231565
3,0,0,0,0,503,503,-0.39464728869611754
4,0,0,0,0,506,506,-0.1348254447150006
5,0,0,0,0,507,507,-0.048218163387961636
6,0,0,0,0,508,507,-0.048218163387961636
7,0,0,0,0,505,505,-0.2214327260420396
8,0,0,0,0,505,505,-0.2214327260420396
9,0,0,0,0,508,508,0.038389117939077344
10,0,0,0,0,509,508,0.038389117939077344
11,0,0,0,0,507,509,0.12499639926611632
12,0,0,0,0,509,507,-0.048218163387961636
13,0,0,0,0,503,505,-0.2214327260420396
14,0,0,0,0,505,505,-0.2214327260420396
15,0,0,0,0,507,507,-0.048218163387961636
0,0,0,0,0,507,507,-0.048218163387961636
1,0,0,0,0,505,505,-0.2214327260420396
2,0,0,0,0,502,504,-0.30804000736907855
3,0,0,0,0,504,504,-0.30804000736907855
4,0,0,0,0,504,504,-0.30804000736907855
5,0,0,0,0,506,506,-0.1348254447150006
6,0,0,0,0,508,507,-0.048218163387961636
7,0,0,0,0,507,507,-0.048218163387961636
8,0,0,0,0,507,507,-0.048218163387961636
9,0,0,0,0,510,510,0.2116036805931553
10,0,0,0,0,510,510,0.2116036805931553
11,0,0,0,0,507,507,-0.048218163387961636
12,0,0,0,0,498,498,-0.8276836953313125
13,0,0,0,0,492,498,-0.8276836953313125
14,0,0,0,0,501,501,-0.5678618513501955
15,0,0,0,0,506,506,-0.1348254447150006
0,0,0,0,0,517,517,0.8178546498824282
1,0,0,0,0,528,520,1.077676493863545
2,0,0,0,0,520,525,1.51071290049874
3,0,0,0,0,525,520,1.077676493863545
4,0,0,0,0,517,517,0.8178546498824282
5,0,0,0,0,508,508,0.038389117939077344
6,0,0,0,0,508,508,0.038389117939077344
7,0,0,0,0,504,504,-0.30804000736907855
8,0,0,0,0,504,504,-0.30804000736907855
9,0,0,0,0,505,505,-0.2214327260420396
10,0,0,0,0,505,505,-0.2214327260420396
11,0,0,0,0,504,505,-0.2214327260420396
12,0,0,0,0,508,508,0.038389117939077344
13,0,0,0,0,511,508,0.038389117939077344
14,0,0,0,0,506,506,-0.1348254447150006
15,0,0,0,0,503,503,-0.39464728869611754
0,0,0,0,0,499,503,-0.39464728869611754
1,0,0,0,0,503,503,-0.39464728869611754
2,0,0,0,0,512,508,0.038389117939077344
3,0,0,0,0,508,512,0.38481824324723324
4,0,0,0,0,513,513,0.4714255245742722
5,0,0,0,0,524,524,1.424105619171701
6,0,0,0,0,530,524,1.424105619171701
7,0,0,0,0,524,524,1.424105619171701
8,0,0,0,0,515,515,0.6446400872283502
9,0,0,0,0,505,505,-0.2214327260420396
10,0,0,0,0,496,496,-1.0008982579853904
11,0,0,0,0,493,496,-1.0008982579853904
12,0,0,0,0,504,504,-0.30804000736907855
13,0,0,0,0,504,504,-0.30804000736907855
14,0,0,0,0,505,505,-0.2214327260420396
15,0,0,0,0,509,509,0.12499639926611632
0,0,0,0,0,510,509,0.12499639926611632
1,0,0,0,0,508,508,0.038389117939077344
2,0,0,0,0,507,507,-0.048218163387961636
3,0,0,0,0,506,507,-0.048218163387961636
4,0,0,0,0,510,510,0.2116036805931553
5,0,0,0,0,510,510,0.2116036805931553
6,0,0,0,0,510,510,0.2116036805931553
7,0,0,0,0,514,511,0.2982109619201943
8,0,0,0,0,511,511,0.2982109619201943
9,0,0,0,0,505,505,-0.2214327260420396
10,0,0,0,0,504,504,-0.30804000736907855
11,0,0,0,0,504,504,-0.30804000736907855
12,0,0,0,0,500,504,-0.30804000736907855
13,0,0,0,0,507,507,-0.048218163387961636
14,0,0,0,0,514,510,0.2116036805931553
15,0,0,0,0,510,511,0.2982109619201943
0,0,0,0,0,511,510,0.2116036805931553
1,0,0,0,0,506,506,-0.1348254447150006
2,0,0,0,0,504,506,-0.1348254447150006
3,0,0,0,0,507,506,-0.1348254447150006
4,0,0,0,0,506,506,-0.1348254447150006
5,0,0,0,0,502,506,-0.1348254447150006
6,0,0,0,0,512,512,0.38481824324723324
7,0,0,0,0,513,512,0.38481824324723324
8,0,0,0,0,512,512,0.38481824324723324
9,0,0,0,0,512,512,0.38481824324723324
10,0,0,0,0,509,509,0.12499639926611632
11,0,0,0,0,507,509,0.12499639926611632
12,0,0,0,0,510,507,-0.048218163387961636
13,0,0,0,0,505,505,-0.2214327260420396
14,0,0,0,0,503,503,-0.39464728869611754
15,0,0,0,0,503,503,-0.39464728869611754
0,0,0,0,0,507,507,-0.048218163387961636
1,0,0,0,0,507,507,-0.048218163387961636
2,0,0,0,0,507,507,-0.048218163387961636
3,0,0,0,0,508,507,-0.048218163387961636
4,0,0,0,0,507,507,-0.048218163387961636
5,0,0,0,0,504,504,-0.30804000736907855
6,0,0,0,0,502,504,-0.30804000736907855
7,0,0,0,0,505,505,-0.2214327260420396
8,0,0,0,0,505,505,-0.2214327260420396
9,0,0,0,0,505,505,-0.2214327260420396
10,0,0,0,0,508,508,0.038389117939077344
11,0,0,0,0,513,509,0.12499639926611632
12,0,0,0,0,509,509,0.12499639926611632
13,0,0,0,0,505,505,-0.2214327260420396
14,0,0,0,0,503,504,-0.30804000736907855
15,0,0,0,0,504,504,-0.30804000736907855
0,0,0,0,0,505,504,-0.30804000736907855
1,0,0,0,0,504,505,-0.2214327260420396
2,0,0,0,0,507,507,-0.048218163387961636
3,0,0,0,0,511,511,0.2982109619201943
4,0,0,0,0,516,516,0.7312473685553892
5,0,0,0,0,524,524,1.424105619171701
6,0,0,0,0,524,524,1.424105619171701
7,0,0,0,0,509,509,0.12499639926611632
8,0,0,0,0,507,507,-0.048218163387961636
9,0,0,0,0,506,506,-0.1348254447150006
10,0,0,0,0,501,501,-0.5678618513501955
11,0,0,0,0,501,501,-0.5678618513501955
12,0,0,0,0,503,503,-0.39464728869611754
13,0,0,0,0,504,504,-0.30804000736907855
14,0,0,0,0,504,504,-0.30804000736907855
15,0,0,0,0,508,508,0.038389117939077344
0,0,0,0,0,509,508,0.038389117939077344
1,0,0,0,0,507,508,0.038389117939077344
2,0,0,0,0,508,507,-0.048218163387961636
3,0,0,0,0,507,508,0.038389117939077344
4,0,0,0,0,509,508,0.038389117939077344
5,0,0,0,0,508,508,0.038389117939077344
6,0,0,0,0,508,508,0.038389117939077344
7,0,0,0,0,504,507,-0.048218163387961636
8,0,0,0,0,507,506,-0.1348254447150006
9,0,0,0,0,506,506,-0.1348254447150006
10,0,0,0,0,506,506,-0.1348254447150006
11,0,0,0,0,507,507,-0.048218163387961636
12,0,0,0,0,509,509,0.12499639926611632
13,0,0,0,0,515,515,0.6446400872283502
14,0,0,0,0,517,515,0.6446400872283502
15,0,0,0,0,507,507,-0.048218163387961636
0,0,0,0,0,500,500,-0.6544691326772345
1,0,0,0,0,496,500,-0.6544691326772345
2,0,0,0,0,506,506,-0.1348254447150006
3,0,0,0,0,516,508,0.038389117939077344
4,0,0,0,0,508,510,0.2116036805931553
5,0,0,0,0,510,510,0.2116036805931553
6,0,0,0,0,516,516,0.7312473685553892
7,0,0,0,0,519,519,0.9910692125365062
8,0,0,0,0,525,525,1.51071290049874
9,0,0,0,0,528,525,1.51071290049874
10,0,0,0,0,520,521,1.1642837751905841
11,0,0,0,0,521,520,1.077676493863545
12,0,0,0,0,520,520,1.077676493863545
13,0,0,0,0,520,520,1.077676493863545
14,0,0,0,0,525,520,1.077676493863545
15,0,0,0,0,520,520,1.077676493863545
0,0,0,0,0,512,513,0.4714255245742722
1,0,0,0,0,513,512,0.38481824324723324
2,0,0,0,0,507,507,-0.048218163387961636
3,0,0,0,0,501,507,-0.048218163387961636
4,0,0,0,0,507,505,-0.2214327260420396
5,0,0,0,0,505,507,-0.048218163387961636
6,0,0,0,0,508,508,0.038389117939077344
7,0,0,0,0,509,508,0.038389117939077344
8,0,0,0,0,508,509,0.12499639926611632
9,0,0,0,0,510,510,0.2116036805931553
10,0,0,0,0,512,512,0.38481824324723324
11,0,0,0,0,514,514,0.5580328059013112
12,0,0,0,0,514,514,0.5580328059013112
13,0,0,0,0,511,511,0.2982109619201943
14,0,0,0,0,508,508,0.038389117939077344
15,0,0,0,0,507,507,-0.048218163387961636
0,0,0,0,0,506,507,-0.048218163387961636
1,0,0,0,0,508,508,0.038389117939077344
2,0,0,0,0,510,508,0.038389117939077344
3,0,0,0,0,506,506,-0.1348254447150006
4,0,0,0,0,506,506,-0.1348254447150006
5,0,0,0,0,505,505,-0.2214327260420396
6,0,0,0,0,504,505,-0.2214327260420396
7,0,0,0,0,508,508,0.038389117939077344
8,0,0,0,0,512,508,0.038389117939077344
9,0,0,0,0,505,505,-0.2214327260420396
10,0,0,0,0,504,505,-0.2214327260420396
11,0,0,0,0,506,506,-0.1348254447150006
12,0,0,0,0,509,509,0.12499639926611632
13,0,0,0,0,511,511,0.2982109619201943
14,0,0,0,0,518,518,0.9044619312094672
15,0,0,0,0,521,521,1.1642837751905841
0,0,0,0,0,521,521,1.1642837751905841
1,0,0,0,0,515,515,0.6446400872283502
2,0,0,0,0,507,507,-0.048218163387961636
3,0,0,0,0,503,503,-0.39464728869611754
4,0,0,0,0,500,501,-0.5678618513501955
5,0,0,0,0,501,501,-0.5678618513501955
6,0,0,0,0,505,501,-0.5678618513501955
7,0,0,0,0,498,502,-0.4812545700231565
8,0,0,0,0,502,502,-0.4812545700231565
9,0,0,0,0,505,504,-0.30804000736907855
10,0,0,0,0,504,504,-0.30804000736907855
11,0,0,0,0,503,503,-0.39464728869611754
12,0,0,0,0,501,503,-0.39464728869611754
13,0,0,0,0,503,503,-0.39464728869611754
14,0,0,0,0,504,504,-0.30804000736907855
15,0,0,0,0,504,504,-0.30804000736907855
0,0,0,0,0,508,504,-0.30804000736907855
1,0,0,0,0,504,508,0.038389117939077344
2,0,0,0,0,508,508,0.038389117939077344
3,0,0,0,0,511,509,0.12499639926611632
4,0,0,0,0,509,509,0.12499639926611632
5,0,0,0,0,508,508,0.038389117939077344
6,0,0,0,0,504,504,-0.30804000736907855
7,0,0,0,0,501,504,-0.30804000736907855
8,0,0,0,0,506,504,-0.30804000736907855
9,0,0,0,0,504,505,-0.2214327260420396
10,0,0,0,0,505,504,-0.30804000736907855
11,0,0,0,0,503,505,-0.2214327260420396
12,0,0,0,0,505,505,-0.2214327260420396
13,0,0,0,0,505,505,-0.2214327260420396
14,0,0,0,0,501,501,-0.5678618513501955
15,0,0,0,0,499,499,-0.7410764140042735
0,0,0,0,0,498,498,-0.8276836953313125
1,0,0,0,0,498,498,-0.8276836953313125
2,0,0,0,0,499,499,-0.7410764140042735
3,0,0,0,0,508,508,0.038389117939077344
4,0,0,0,0,519,519,0.9910692125365062
5,0,0,0,0,522,519,0.9910692125365062
6,0,0,0,0,515,515,0.6446400872283502
7,0,0,0,0,511,511,0.2982109619201943
8,0,0,0,0,505,505,-0.2214327260420396
9,0,0,0,0,502,505,-0.2214327260420396
10,0,0,0,0,508,508,0.038389117939077344
11,0,0,0,0,518,518,0.9044619312094672
12,0,0,0,0,524,518,0.9044619312094672
13,0,0,0,0,507,507,-0.048218163387961636
14,0,0,0,0,496,496,-1.0008982579853904
15,0,0,0,0,486,496,-1.0008982579853904
0,0,0,0,0,497,497,-0.9142909766583515
1,0,0,0,0,507,504,-0.30804000736907855
2,0,0,0,0,504,507,-0.048218163387961636
3,0,0,0,0,508,507,-0.048218163387961636
4,0,0,0,0,507,508,0.038389117939077344
5,0,0,0,0,508,508,0.038389117939077344
6,0,0,0,0,508,508,0.038389117939077344
7,0,0,0,0,506,508,0.038389117939077344
8,0,0,0,0,508,508,0.038389117939077344
9,0,0,0,0,510,508,0.038389117939077344
10,0,0,0,0,508,508,0.038389117939077344
11,0,0,0,0,505,505,-0.2214327260420396
12,0,0,0,0,503,505,-0.2214327260420396
13,0,0,0,0,506,506,-0.1348254447150006
14,0,0,0,0,506,506,-0.1348254447150006
15,0,0,0,0,508,508,0.038389117939077344
0,0,0,0,0,510,510,0.2116036805931553
1,0,0,0,0,513,510,0.2116036805931553
2,0,0,0,0,509,509,0.12499639926611632
3,0,0,0,0,505,507,-0.048218163387961636
4,0,0,0,0,507,505,-0.2214327260420396
5,0,0,0,0,502,502,-0.4812545700231565
6,0,0,0,0,499,502,-0.4812545700231565
7,0,0,0,0,502,502,-0.4812545700231565
8,0,0,0,0,506,506,-0.1348254447150006
9,0,0,0,0,510,506,-0.1348254447150006
10,0,0,0,0,506,506,-0.1348254447150006
11,0,0,0,0,505,505,-0.2214327260420396
12,0,0,0,0,502,505,-0.2214327260420396
13,0,0,0,0,511,509,0.12499639926611632
14,0,0,0,0,509,511,0.2982109619201943
15,0,0,0,0,515,515,0.6446400872283502
0,0,0,0,0,518,515,0.6446400872283502
1,0,0,0,0,515,515,0.6446400872283502
2,0,0,0,0,510,510,0.2116036805931553
3,0,0,0,0,508,508,0.038389117939077344
4,0,0,0,0,504,504,-0.30804000736907855
5,0,0,0,0,504,504,-0.30804000736907855
6,0,0,0,0,507,504,-0.30804000736907855
7,0,0,0,0,499,501,-0.5678618513501955
8,0,0,0,0,501,499,-0.7410764140042735
9,0,0,0,0,499,501,-0.5678618513501955
10,0,0,0,0,504,504,-0.30804000736907855
11,0,0,0,0,506,504,-0.30804000736907855
12,0,0,0,0,503,506,-0.1348254447150006
13,0,0,0,0,511,511,0.2982109619201943
14,0,0,0,0,517,515,0.6446400872283502
15,0,0,0,0,515,515,0.6446400872283502
0,0,0,0,0,509,509,0.12499639926611632
1,0,0,0,0,506,508,0.038389117939077344
2,0,0,0,0,508,508,0.038389117939077344
3,0,0,0,0,511,510,0.2116036805931553
4,0,0,0,0,510,510,0.2116036805931553
5,0,0,0,0,510,510,0.2116036805931553
6,0,0,0,0,508,508,0.038389117939077344
7,0,0,0,0,507,508,0.038389117939077344
8,0,0,0,0,508,507,-0.048218163387961636
9,0,0,0,0,505,506,-0.1348254447150006
10,0,0,0,0,506,506,-0.1348254447150006
11,0,0,0,0,507,506,-0.1348254447150006
12,0,0,0,0,503,503,-0.39464728869611754
13,0,0,0,0,503,503,-0.39464728869611754
14,0,0,0,0,500,503,-0.39464728869611754
15,0,0,0,0,505,505,-0.2214327260420396
0,0,0,0,0,508,508,0.038389117939077344
1,0,0,0,0,514,510,0.2116036805931553
2,0,0,0,0,510,510,0.2116036805931553
3,0,0,0,0,504,504,-0.30804000736907855
4,0,0,0,0,504,504,-0.30804000736907855
5,0,0,0,0,504,504,-0.30804000736907855
6,0,0,0,0,502,503,-0.39464728869611754
7,0,0,0,0,503,503,-0.39464728869611754
8,0,0,0,0,504,504,-0.30804000736907855
9,0,0,0,0,510,510,0.2116036805931553
10,0,0,0,0,512,511,0.2982109619201943
11,0,0,0,0,511,511,0.2982109619201943
12,0,0,0,0,508,509,0.12499639926611632
13,0,0,0,0,509,509,0.12499639926611632
14,0,0,0,0,512,512,0.38481824324723324
15,0,0,0,0,512,512,0.38481824324723324
0,0,0,0,0,517,512,0.38481824324723324
1,0,0,0,0,508,508,0.038389117939077344
2,0,0,0,0,504,504,-0.30804000736907855
3,0,0,0,0,504,504,-0.30804000736907855
4,0,0,0,0,502,504,-0.30804000736907855
5,0,0,0,0,505,505,-0.2214327260420396
6,0,0,0,0,508,507,-0.048218163387961636
7,0,0,0,0,507,507,-0.048218163387961636
8,0,0,0,0,507,507,-0.048218163387961636
9,0,0,0,0,516,516,0.7312473685553892
10,0,0,0,0,517,516,0.7312473685553892
11,0,0,0,0,513,513,0.4714255245742722
12,0,0,0,0,504,504,-0.30804000736907855
13,0,0,0,0,495,502,-0.4812545700231565
14,0,0,0,0,502,502,-0.4812545700231565
15,0,0,0,0,509,505,-0.2214327260420396
0,0,0,0,0,505,505,-0.2214327260420396
1,0,0,0,0,505,505,-0.2214327260420396
2,0,0,0,0,509,505,-0.2214327260420396
3,0,0,0,0,498,499,-0.7410764140042735
4,0,0,0,0,499,499,-0.7410764140042735
5,0,0,0,0,504,504,-0.30804000736907855
6,0,0,0,0,510,510,0.2116036805931553
7,0,0,0,0,516,516,0.7312473685553892
8,0,0,0,0,518,516,0.7312473685553892
9,0,0,0,0,515,515,0.6446400872283502
10,0,0,0,0,515,515,0.6446400872283502
11,0,0,0,0,508,508,0.038389117939077344
12,0,0,0,0,507,507,-0.048218163387961636
13,0,0,0,0,507,507,-0.048218163387961636
14,0,0,0,0,507,507,-0.048218163387961636
15,0,0,0,0,508,507,-0.048218163387961636
0,0,0,0,0,507,507,-0.048218163387961636
1,0,0,0,0,504,505,-0.2214327260420396
2,0,0,0,0,505,504,-0.30804000736907855
3,0,0,0,0,504,504,-0.30804000736907855
4,0,0,0,0,502,502,-0.4812545700231565
5,0,0,0,0,502,502,-0.4812545700231565
6,0,0,0,0,504,503,-0.39464728869611754
7,0,0,0,0,503,504,-0.30804000736907855
8,0,0,0,0,508,508,0.038389117939077344
9,0,0,0,0,508,508,0.038389117939077344
10,0,0,0,0,504,504,-0.30804000736907855
11,0,0,0,0,504,504,-0.30804000736907855
12,0,0,0,0,510,508,0.038389117939077344
13,0,0,0,0,508,510,0.2116036805931553
14,0,0,0,0,513,513,0.4714255245742722
15,0,0,0,0,513,513,0.4714255245742722
0,0,0,0,0,515,513,0.4714255245742722
1,0,0,0,0,513,513,0.4714255245742722
2,0,0,0,0,508,508,0.038389117939077344
3,0,0,0,0,504,506,-0.1348254447150006
4,0,0,0,0,506,506,-0.1348254447150006
5,0,0,0,0,506,506,-0.1348254447150006
6,0,0,0,0,504,506,-0.1348254447150006
7,0,0,0,0,507,505,-0.2214327260420396
8,0,0,0,0,505,505,-0.2214327260420396
9,0,0,0,0,505,505,-0.2214327260420396
10,0,0,0,0,505,505,-0.2214327260420396
11,0,0,0,0,505,505,-0.2214327260420396
12,0,0,0,0,502,502,-0.4812545700231565
13,0,0,0,0,502,502,-0.4812545700231565
14,0,0,0,0,501,502,-0.4812545700231565
15,0,0,0,0,502,502,-0.4812545700231565
0,0,0,0,0,503,503,-0.39464728869611754
1,0,0,0,0,509,509,0.12499639926611632
2,0,0,0,0,511,509,0.12499639926611632
3,0,0,0,0,508,508,0.038389117939077344
4,0,0,0,0,506,506,-0.1348254447150006
5,0,0,0,0,503,506,-0.1348254447150006
6,0,0,0,0,507,507,-0.048218163387961636
7,0,0,0,0,513,513,0.4714255245742722
8,0,0,0,0,518,513,0.4714255245742722
9,0,0,0,0,511,511,0.2982109619201943
10,0,0,0,0,507,510,0.2116036805931553
11,0,0,0,0,510,507,-0.048218163387961636
12,0,0,0,0,507,507,-0.048218163387961636
13,0,0,0,0,503,503,-0.39464728869611754
14,0,0,0,0,503,503,-0.39464728869611754
15,0,0,0,0,500,501,-0.5678618513501955
0,0,0,0,0,501,501,-0.5678618513501955
1,0,0,0,0,503,503,-0.39464728869611754
2,0,0,0,0,505,504,-0.30804000736907855
3,0,0,0,0,504,505,-0.2214327260420396
4,0,0,0,0,509,508,0.038389117939077344
5,0,0,0,0,508,509,0.12499639926611632
6,0,0,0,0,509,509,0.12499639926611632
7,0,0,0,0,509,509,0.12499639926611632
8,0,0,0,0,507,508,0.038389117939077344
9,0,0,0,0,508,508,0.038389117939077344
10,0,0,0,0,508,508,0.038389117939077344
11,0,0,0,0,505,508,0.038389117939077344
12,0,0,0,0,510,510,0.2116036805931553
13,0,0,0,0,512,510,0.2116036805931553
14,0,0,0,0,507,511,0.2982109619201943
15,0,0,0,0,511,507,-0.048218163387961636
0,0,0,0,0,504,504,-0.30804000736907855
1,0,0,0,0,503,504,-0.30804000736907855
2,0,0,0,0,506,505,-0.2214327260420396
3,0,0,0,0,505,505,-0.2214327260420396
4,0,0,0,0,505,505,-0.2214327260420396
5,0,0,0,0,504,505,-0.2214327260420396
6,0,0,0,0,505,505,-0.2214327260420396
7,0,0,0,0,506,506,-0.1348254447150006
8,0,0,0,0,507,506,-0.1348254447150006
9,0,0,0,0,505,505,-0.2214327260420396
10,0,0,0,0,504,505,-0.2214327260420396
11,0,0,0,0,509,509,0.12499639926611632
12,0,0,0,0,510,509,0.12499639926611632
13,0,0,0,0,508,509,0.12499639926611632
14,0,0,0,0,509,508,0.038389117939077344
15,0,0,0,0,508,509,0.12499639926611632
0,0,0,0,0,509,508,0.038389117939077344
1,0,0,0,0,508,508,0.038389117939077344
2,0,0,0,0,505,505,-0.2214327260420396
3,0,0,0,0,505,505,-0.2214327260420396
4,0,0,0,0,503,505,-0.2214327260420396
5,0,0,0,0,505,505,-0.2214327260420396
6,0,0,0,0,505,505,-0.2214327260420396
7,0,0,0,0,505,505,-0.2214327260420396
8,0,0,0,0,508,508,0.038389117939077344
9,0,0,0,0,508,508,0.038389117939077344
10,0,0,0,0,506,506,-0.1348254447150006
11,0,0,0,0,505,505,-0.2214327260420396
12,0,0,0,0,504,504,-0.30804000736907855
13,0,0,0,0,503,504,-0.30804000736907855
14,0,0,0,0,504,504,-0.30804000736907855
15,0,0,0,0,510,510,0.2116036805931553
0,0,0,0,0,518,513,0.4714255245742722
1,0,0,0,0,513,518,0.9044619312094672
2,0,0,0,0,519,518,0.9044619312094672
3,0,0,0,0,518,518,0.9044619312094672
4,0,0,0,0,509,509,0.12499639926611632
5,0,0,0,0,502,502,-0.4812545700231565
6,0,0,0,0,491,502,-0.4812545700231565
7,0,0,0,0,504,504,-0.30804000736907855
8,0,0,0,0,505,504,-0.30804000736907855
9,0,0,0,0,504,504,-0.30804000736907855
10,0,0,0,0,502,504,-0.30804000736907855
11,0,0,0,0,506,506,-0.1348254447150006
12,0,0,0,0,508,506,-0.1348254447150006
13,0,0,0,0,504,508,0.038389117939077344
14,0,0,0,0,509,504,-0.30804000736907855
15,0,0,0,0,504,504,-0.30804000736907855
0,0,0,0,0,504,504,-0.30804000736907855
1,0,0,0,0,507,504,-0.30804000736907855
2,0,0,0,0,500,500,-0.6544691326772345
3,0,0,0,0,500,500,-0.6544691326772345
4,0,0,0,0,500,500,-0.6544691326772345
5,0,0,0,0,506,506,-0.1348254447150006
6,0,0,0,0,520,520,1.077676493863545
7,0,0,0,0,530,525,1.51071290049874
8,0,0,0,0,525,530,1.943749307133935
9,0,0,0,0,531,525,1.51071290049874
10,0,0,0,0,516,516,0.7312473685553892
11,0,0,0,0,509,509,0.12499639926611632
12,0,0,0,0,502,502,-0.4812545700231565
13,0,0,0,0,499,499,-0.7410764140042735
14,0,0,0,0,499,499,-0.7410764140042735
15,0,0,0,0,502,502,-0.4812545700231565
0,0,0,0,0,503,502,-0.4812545700231565
1,0,0,0,0,500,503,-0.39464728869611754
2,0,0,0,0,503,503,-0.39464728869611754
3,0,0,0,0,505,505,-0.2214327260420396
4,0,0,0,0,510,510,0.2116036805931553
5,0,0,0,0,512,510,0.2116036805931553
6,0,0,0,0,510,510,0.2116036805931553
7,0,0,0,0,504,504,-0.30804000736907855
8,0,0,0,0,504,504,-0.30804000736907855
9,0,0,0,0,508,508,0.038389117939077344
10,0,0,0,0,508,508,0.038389117939077344
11,0,0,0,0,506,507,-0.048218163387961636
12,0,0,0,0,507,507,-0.048218163387961636
13,0,0,0,0,507,507,-0.048218163387961636
14,0,0,0,0,507,507,-0.048218163387961636
15,0,0,0,0,509,508,0.038389117939077344
0,0,0,0,0,508,508,0.038389117939077344
1,0,0,0,0,504,505,-0.2214327260420396
2,0,0,0,0,505,504,-0.30804000736907855
3,0,0,0,0,503,505,-0.2214327260420396
4,0,0,0,0,507,507,-0.048218163387961636
5,0,0,0,0,507,507,-0.048218163387961636
6,0,0,0,0,504,504,-0.30804000736907855
7,0,0,0,0,503,504,-0.30804000736907855
8,0,0,0,0,507,506,-0.1348254447150006
9,0,0,0,0,506,507,-0.048218163387961636
10,0,0,0,0,508,508,0.038389117939077344
11,0,0,0,0,509,509,0.12499639926611632
12,0,0,0,0,512,512,0.38481824324723324
13,0,0,0,0,512,512,0.38481824324723324
14,0,0,0,0,511,511,0.2982109619201943
15,0,0,0,0,507,511,0.2982109619201943
0,0,0,0,0,511,511,0.2982109619201943
1,0,0,0,0,511,511,0.2982109619201943
2,0,0,0,0,506,508,0.038389117939077344
3,0,0,0,0,508,506,-0.1348254447150006
4,0,0,0,0,506,508,0.038389117939077344
5,0,0,0,0,508,508,0.038389117939077344
6,0,0,0,0,508,508,0.038389117939077344
7,0,0,0,0,506,507,-0.048218163387961636
8,0,0,0,0,507,506,-0.1348254447150006
9,0,0,0,0,505,505,-0.2214327260420396
10,0,0,0,0,505,505,-0.2214327260420396
11,0,0,0,0,506,505,-0.2214327260420396
12,0,0,0,0,503,503,-0.39464728869611754
13,0,0,0,0,503,503,-0.39464728869611754
14,0,0,0,0,506,506,-0.1348254447150006
15,0,0,0,0,511,511,0.2982109619201943
0,0,0,0,0,519,511,0.2982109619201943
1,0,0,0,0,511,511,0.2982109619201943
2,0,0,0,0,507,507,-0.048218163387961636
3,0,0,0,0,505,507,-0.048218163387961636
4,0,0,0,0,510,509,0.12499639926611632
5,0,0,0,0,509,509,0.12499639926611632
6,0,0,0,0,503,506,-0.1348254447150006
7,0,0,0,0,506,506,-0.1348254447150006
8,0,0,0,0,508,506,-0.1348254447150006
9,0,0,0,0,506,508,0.038389117939077344
10,0,0,0,0,514,512,0.38481824324723324
11,0,0,0,0,512,512,0.38481824324723324
12,0,0,0,0,504,504,-0.30804000736907855
13,0,0,0,0,486,487,-1.7803637899287412
14,0,0,0,0,487,487,-1.7803637899287412
15,0,0,0,0,492,492,-1.3473273832935464
0,0,0,0,0,513,513,0.4714255245742722
1,0,0,0,0,530,526,1.597320181825779
2,0,0,0,0,526,526,1.597320181825779
3,0,0,0,0,519,519,0.9910692125365062
4,0,0,0,0,514,514,0.5580328059013112
5,0,0,0,0,508,508,0.038389117939077344
6,0,0,0,0,505,505,-0.2214327260420396
7,0,0,0,0,498,504,-0.30804000736907855
8,0,0,0,0,504,504,-0.30804000736907855
9,0,0,0,0,509,508,0.038389117939077344
10,0,0,0,0,508,509,0.12499639926611632
11,0,0,0,0,510,510,0.2116036805931553
12,0,0,0,0,510,510,0.2116036805931553
13,0,0,0,0,516,515,0.6446400872283502
14,0,0,0,0,515,515,0.6446400872283502
15,0,0,0,0,505,507,-0.048218163387961636
0,0,0,0,0,507,507,-0.048218163387961636
1,0,0,0,0,507,507,-0.048218163387961636
2,0,0,0,0,506,507,-0.048218163387961636
3,0,0,0,0,509,506,-0.1348254447150006
4,0,0,0,0,501,501,-0.5678618513501955
5,0,0,0,0,500,501,-0.5678618513501955
6,0,0,0,0,504,504,-0.30804000736907855
7,0,0,0,0,504,504,-0.30804000736907855
8,0,0,0,0,509,508,0.038389117939077344
9,0,0,0,0,508,509,0.12499639926611632
10,0,0,0,0,512,510,0.2116036805931553
11,0,0,0,0,510,511,0.2982109619201943
12,0,0,0,0,511,510,0.2116036805931553
13,0,0,0,0,508,508,0.038389117939077344
14,0,0,0,0,505,505,-0.2214327260420396
15,0,0,0,0,504,504,-0.30804000736907855
0,0,0,0,0,503,504,-0.30804000736907855
1,0,0,0,0,506,506,-0.1348254447150006
2,0,0,0,0,506,506,-0.1348254447150006
3,0,0,0,0,503,506,-0.1348254447150006
4,0,0,0,0,507,507,-0.048218163387961636
5,0,0,0,0,508,508,0.038389117939077344
6,0,0,0,0,509,508,0.038389117939077344
7,0,0,0,0,506,507,-0.048218163387961636
8,0,0,0,0,507,507,-0.048218163387961636
9,0,0,0,0,507,507,-0.048218163387961636
10,0,0,0,0,508,507,-0.048218163387961636
11,0,0,0,0,505,508,0.038389117939077344
12,0,0,0,0,508,508,0.038389117939077344
13,0,0,0,0,508,508,0.038389117939077344
14,0,0,0,0,505,508,0.038389117939077344
15,0,0,0,0,510,510,0.2116036805931553
0,0,0,0,0,514,510,0.2116036805931553
1,0,0,0,0,510,510,0.2116036805931553
2,0,0,0,0,507,507,-0.048218163387961636
3,0,0,0,0,504,505,-0.2214327260420396
4,0,0,0,0,505,505,-0.2214327260420396
5,0,0,0,0,507,505,-0.2214327260420396
6,0,0,0,0,505,505,-0.2214327260420396
7,0,0,0,0,505,505,-0.2214327260420396
8,0,0,0,0,508,506,-0.1348254447150006
9,0,0,0,0,506,506,-0.1348254447150006
10,0,0,0,0,504,505,-0.2214327260420396
11,0,0,0,0,505,505,-0.2214327260420396
12,0,0,0,0,506,506,-0.1348254447150006
13,0,0,0,0,507,507,-0.048218163387961636
14,0,0,0,0,509,508,0.038389117939077344
15,0,0,0,0,508,508,0.038389117939077344
0,0,0,0,0,508,508,0.038389117939077344
1,0,0,0,0,510,509,0.12499639926611632
2,0,0,0,0,509,509,0.12499639926611632
3,0,0,0,0,509,509,0.12499639926611632
4,0,0,0,0,510,509,0.12499639926611632
5,0,0,0,0,505,505,-0.2214327260420396
6,0,0,0,0,505,505,-0.2214327260420396
7,0,0,0,0,504,505,-0.2214327260420396
8,0,0,0,0,508,508,0.038389117939077344
9,0,0,0,0,512,511,0.2982109619201943
10,0,0,0,0,511,511,0.2982109619201943
11,0,0,0,0,505,505,-0.2214327260420396
12,0,0,0,0,505,505,-0.2214327260420396
13,0,0,0,0,506,505,-0.2214327260420396
14,0,0,0,0,504,506,-0.1348254447150006
15,0,0,0,0,506,504,-0.30804000736907855
0,0,0,0,0,503,505,-0.2214327260420396
1,0,0,0,0,505,505,-0.2214327260420396
2,0,0,0,0,505,505,-0.2214327260420396
3,0,0,0,0,509,509,0.12499639926611632
4,0,0,0,0,509,509,0.12499639926611632
5,0,0,0,0,514,514,0.5580328059013112
6,0,0,0,0,515,514,0.5580328059013112
7,0,0,0,0,511,511,0.2982109619201943
8,0,0,0,0,508,508,0.038389117939077344
9,0,0,0,0,508,508,0.038389117939077344
10,0,0,0,0,509,509,0.12499639926611632
11,0,0,0,0,510,509,0.12499639926611632
12,0,0,0,0,509,509,0.12499639926611632
13,0,0,0,0,504,507,-0.048218163387961636
14,0,0,0,0,507,504,-0.30804000736907855
15,0,0,0,0,504,507,-0.048218163387961636
0,0,0,0,0,509,505,-0.2214327260420396
1,0,0,0,0,505,505,-0.2214327260420396
2,0,0,0,0,504,505,-0.2214327260420396
3,0,0,0,0,508,507,-0.048218163387961636
4,0,0,0,0,507,507,-0.048218163387961636
5,0,0,0,0,505,507,-0.048218163387961636
6,0,0,0,0,507,507,-0.048218163387961636
7,0,0,0,0,507,507,-0.048218163387961636
8,0,0,0,0,507,507,-0.048218163387961636
9,0,0,0,0,510,507,-0.048218163387961636
10,0,0,0,0,506,506,-0.1348254447150006
11,0,0,0,0,504,506,-0.1348254447150006
12,0,0,0,0,508,508,0.038389117939077344
13,0,0,0,0,510,510,0.2116036805931553
14,0,0,0,0,510,510,0.2116036805931553
15,0,0,0,0,520,513,0.4714255245742722
0,0,0,0,0,513,513,0.4714255245742722
1,0,0,0,0,508,508,0.038389117939077344
2,0,0,0,0,502,502,-0.4812545700231565
3,0,0,0,0,494,500,-0.6544691326772345
4,0,0,0,0,500,500,-0.6544691326772345
5,0,0,0,0,501,501,-0.5678618513501955
6,0,0,0,0,501,501,-0.5678618513501955
7,0,0,0,0,510,510,0.2116036805931553
8,0,0,0,0,517,511,0.2982109619201943
9,0,0,0,0,511,511,0.2982109619201943
10,0,0,0,0,508,511,0.2982109619201943
11,0,0,0,0,513,509,0.12499639926611632
12,0,0,0,0,509,512,0.38481824324723324
13,0,0,0,0,512,512,0.38481824324723324
14,0,0,0,0,512,512,0.38481824324723324
15,0,0,0,0,505,506,-0.1348254447150006
0,0,0,0,0,506,506,-0.1348254447150006
1,0,0,0,0,507,507,-0.048218163387961636
2,0,0,0,0,507,507,-0.048218163387961636
3,0,0,0,0,505,505,-0.2214327260420396
4,0,0,0,0,501,505,-0.2214327260420396
5,0,0,0,0,505,505,-0.2214327260420396
6,0,0,0,0,507,506,-0.1348254447150006
7,0,0,0,0,506,506,-0.1348254447150006
8,0,0,0,0,505,505,-0.2214327260420396
9,0,0,0,0,504,504,-0.30804000736907855
10,0,0,0,0,503,504,-0.30804000736907855
11,0,0,0,0,506,506,-0.1348254447150006
12,0,0,0,0,508,508,0.038389117939077344
13,0,0,0,0,512,508,0.038389117939077344
14,0,0,0,0,504,505,-0.2214327260420396
15,0,0,0,0,505,504,-0.30804000736907855
0,0,0,0,0,497,497,-0.9142909766583515
1,0,0,0,0,490,494,-1.1741128206394684
2,0,0,0,0,494,494,-1.1741128206394684
3,0,0,0,0,507,507,-0.048218163387961636
4,0,0,0,0,521,521,1.1642837751905841
5,0,0,0,0,533,523,1.337498337844662
6,0,0,0,0,523,524,1.424105619171701
7,0,0,0,0,524,523,1.337498337844662
8,0,0,0,0,517,517,0.8178546498824282
9,0,0,0,0,513,513,0.4714255245742722
10,0,0,0,0,504,504,-0.30804000736907855
11,0,0,0,0,500,500,-0.6544691326772345
12,0,0,0,0,500,500,-0.6544691326772345
13,0,0,0,0,498,500,-0.6544691326772345
14,0,0,0,0,500,498,-0.8276836953313125
15,0,0,0,0,497,500,-0.6544691326772345
0,0,0,0,0,502,501,-0.5678618513501955
1,0,0,0,0,501,502,-0.4812545700231565
2,0,0,0,0,507,507,-0.048218163387961636
3,0,0,0,0,510,509,0.12499639926611632
4,0,0,0,0,509,510,0.2116036805931553
5,0,0,0,0,511,511,0.2982109619201943
6,0,0,0,0,511,511,0.2982109619201943
7,0,0,0,0,509,509,0.12499639926611632
8,0,0,0,0,507,509,0.12499639926611632
9,0,0,0,0,509,507,-0.048218163387961636
10,0,0,0,0,506,506,-0.1348254447150006
11,0,0,0,0,506,506,-0.1348254447150006
12,0,0,0,0,503,506,-0.1348254447150006
13,0,0,0,0,506,503,-0.39464728869611754
14,0,0,0,0,503,505,-0.2214327260420396
15,0,0,0,0,505,505,-0.2214327260420396
0,0,0,0,0,505,505,-0.2214327260420396
1,0,0,0,0,505,505,-0.2214327260420396
2,0,0,0,0,506,506,-0.1348254447150006
3,0,0,0,0,507,507,-0.048218163387961636
4,0,0,0,0,507,507,-0.048218163387961636
5,0,0,0,0,509,509,0.12499639926611632
6,0,0,0,0,509,509,0.12499639926611632
7,0,0,0,0,508,509,0.12499639926611632
8,0,0,0,0,509,508,0.038389117939077344
9,0,0,0,0,507,508,0.038389117939077344
10,0,0,0,0,508,507,-0.048218163387961636
11,0,0,0,0,504,506,-0.1348254447150006
12,0,0,0,0,506,506,-0.1348254447150006
13,0,0,0,0,508,508,0.038389117939077344
14,0,0,0,0,511,510,0.2116036805931553
15,0,0,0,0,510,510,0.2116036805931553
0,0,0,0,0,503,503,-0.39464728869611754
1,0,0,0,0,499,503,-0.39464728869611754
2,0,0,0,0,503,503,-0.39464728869611754
3,0,0,0,0,504,504,-0.30804000736907855
4,0,0,0,0,513,513,0.4714255245742722
5,0,0,0,0,514,513,0.4714255245742722
6,0,0,0,0,508,510,0.2116036805931553
7,0,0,0,0,510,510,0.2116036805931553
8,0,0,0,0,513,513,0.4714255245742722
9,0,0,0,0,516,513,0.4714255245742722
10,0,0,0,0,510,510,0.2116036805931553
11,0,0,0,0,507,507,-0.048218163387961636
12,0,0,0,0,507,507,-0.048218163387961636
13,0,0,0,0,505,507,-0.048218163387961636
14,0,0,0,0,508,506,-0.1348254447150006
15,0,0,0,0,506,508,0.038389117939077344
0,0,0,0,0,508,508,0.038389117939077344
1,0,0,0,0,508,508,0.038389117939077344
2,0,0,0,0,503,504,-0.30804000736907855
3,0,0,0,0,504,504,-0.30804000736907855
4,0,0,0,0,505,505,-0.2214327260420396
5,0,0,0,0,509,506,-0.1348254447150006
6,0,0,0,0,506,506,-0.1348254447150006
7,0,0,0,0,505,505,-0.2214327260420396
8,0,0,0,0,505,505,-0.2214327260420396
9,0,0,0,0,502,503,-0.39464728869611754
10,0,0,0,0,503,503,-0.39464728869611754
11,0,0,0,0,505,504,-0.30804000736907855
12,0,0,0,0,504,505,-0.2214327260420396
13,0,0,0,0,519,512,0.38481824324723324
14,0,0,0,0,512,512,0.38481824324723324
15,0,0,0,0,504,504,-0.30804000736907855
0,0,0,0,0,492,492,-1.3473273832935464
1,0,0,0,0,491,492,-1.3473273832935464
2,0,0,0,0,507,507,-0.048218163387961636
3,0,0,0,0,516,515,0.6446400872283502
4,0,0,0,0,515,516,0.7312473685553892
5,0,0,0,0,519,519,0.9910692125365062
6,0,0,0,0,524,524,1.424105619171701
7,0,0,0,0,524,524,1.424105619171701
8,0,0,0,0,511,511,0.2982109619201943
9,0,0,0,0,505,505,-0.2214327260420396
10,0,0,0,0,505,505,-0.2214327260420396
11,0,0,0,0,505,505,-0.2214327260420396
12,0,0,0,0,504,504,-0.30804000736907855
13,0,0,0,0,500,503,-0.39464728869611754
14,0,0,0,0,503,503,-0.39464728869611754
15,0,0,0,0,504,504,-0.30804000736907855
0,0,0,0,0,511,511,0.2982109619201943
1,0,0,0,0,511,511,0.2982109619201943
2,0,0,0,0,510,510,0.2116036805931553
3,0,0,0,0,510,510,0.2116036805931553
4,0,0,0,0,507,509,0.12499639926611632
5,0,0,0,0,509,509,0.12499639926611632
6,0,0,0,0,509,509,0.12499639926611632
7,0,0,0,0,513,512,0.38481824324723324
8,0,0,0,0,512,512,0.38481824324723324
9,0,0,0,0,508,508,0.038389117939077344
10,0,0,0,0,508,508,0.038389117939077344
11,0,0,0,0,507,507,-0.048218163387961636
12,0,0,0,0,505,505,-0.2214327260420396
13,0,0,0,0,505,505,-0.2214327260420396
14,0,0,0,0,505,505,-0.2214327260420396
15,0,0,0,0,506,505,-0.2214327260420396
0,0,0,0,0,505,506,-0.1348254447150006
1,0,0,0,0,506,505,-0.2214327260420396
2,0,0,0,0,502,506,-0.1348254447150006
3,0,0,0,0,507,506,-0.1348254447150006
4,0,0,0,0,506,507,-0.048218163387961636
5,0,0,0,0,510,506,-0.1348254447150006
6,0,0,0,0,505,506,-0.1348254447150006
7,0,0,0,0,506,506,-0.1348254447150006
8,0,0,0,0,510,508,0.038389117939077344
9,0,0,0,0,508,508,0.038389117939077344
10,0,0,0,0,508,508,0.038389117939077344
11,0,0,0,0,512,512,0.38481824324723324
12,0,0,0,0,513,513,0.4714255245742722
13,0,0,0,0,516,516,0.7312473685553892
14,0,0,0,0,517,516,0.7312473685553892
15,0,0,0,0,516,516,0.7312473685553892
0,0,0,0,0,516,516,0.7312473685553892
1,0,0,0,0,512,512,0.38481824324723324
2,0,0,0,0,509,509,0.12499639926611632
3,0,0,0,0,506,506,-0.1348254447150006
4,0,0,0,0,506,506,-0.1348254447150006
5,0,0,0,0,505,506,-0.1348254447150006
6,0,0,0,0,506,506,-0.1348254447150006
7,0,0,0,0,508,506,-0.1348254447150006
8,0,0,0,0,506,506,-0.1348254447150006
9,0,0,0,0,506,506,-0.1348254447150006
10,0,0,0,0,509,509,0.12499639926611632
11,0,0,0,0,513,511,0.2982109619201943
12,0,0,0,0,511,513,0.4714255245742722
13,0,0,0,0,513,513,0.4714255245742722
14,0,0,0,0,519,513,0.4714255245742722
15,0,0,0,0,513,513,0.4714255245742722
0,0,0,0,0,510,510,0.2116036805931553
1,0,0,0,0,509,509,0.12499639926611632
2,0,0,0,0,506,506,-0.1348254447150006
3,0,0,0,0,506,506,-0.1348254447150006
4,0,0,0,0,504,504,-0.30804000736907855
5,0,0,0,0,502,504,-0.30804000736907855
6,0,0,0,0,508,508,0.038389117939077344
7,0,0,0,0,508,508,0.038389117939077344
8,0,0,0,0,500,500,-0.6544691326772345
9,0,0,0,0,494,496,-1.0008982579853904
10,0,0,0,0,496,496,-1.0008982579853904
11,0,0,0,0,500,500,-0.6544691326772345
12,0,0,0,0,510,510,0.2116036805931553
13,0,0,0,0,513,513,0.4714255245742722
14,0,0,0,0,517,516,0.7312473685553892
15,0,0,0,0,516,517,0.8178546498824282
0,0,0,0,0,519,519,0.9910692125365062
1,0,0,0,0,527,519,0.9910692125365062
2,0,0,0,0,519,519,0.9910692125365062
3,0,0,0,0,507,507,-0.048218163387961636
4,0,0,0,0,494,494,-1.1741128206394684
5,0,0,0,0,493,494,-1.1741128206394684
6,0,0,0,0,504,502,-0.4812545700231565
7,0,0,0,0,502,503,-0.39464728869611754
8,0,0,0,0,503,503,-0.39464728869611754
9,0,0,0,0,505,504,-0.30804000736907855
10,0,0,0,0,504,505,-0.2214327260420396
11,0,0,0,0,506,504,-0.30804000736907855
12,0,0,0,0,504,504,-0.30804000736907855
13,0,0,0,0,503,504,-0.30804000736907855
14,0,0,0,0,504,504,-0.30804000736907855
15,0,0,0,0,506,506,-0.1348254447150006
0,0,0,0,0,508,508,0.038389117939077344
1,0,0,0,0,508,508,0.038389117939077344
2,0,0,0,0,508,508,0.038389117939077344
3,0,0,0,0,508,508,0.038389117939077344
4,0,0,0,0,512,512,0.38481824324723324
5,0,0,0,0,512,512,0.38481824324723324
6,0,0,0,0,513,513,0.4714255245742722
7,0,0,0,0,516,513,0.4714255245742722
8,0,0,0,0,513,513,0.4714255245742722
9,0,0,0,0,512,512,0.38481824324723324
10,0,0,0,0,510,510,0.2116036805931553
11,0,0,0,0,508,508,0.038389117939077344
12,0,0,0,0,505,505,-0.2214327260420396
13,0,0,0,0,503,503,-0.39464728869611754
14,0,0,0,0,503,503,-0.39464728869611754
15,0,0,0,0,504,503,-0.39464728869611754
0,0,0,0,0,503,504,-0.30804000736907855
1,0,0,0,0,505,505,-0.2214327260420396
2,0,0,0,0,505,505,-0.2214327260420396
3,0,0,0,0,514,514,0.5580328059013112
4,0,0,0,0,517,514,0.5580328059013112
5,0,0,0,0,514,514,0.5580328059013112
6,0,0,0,0,511,514,0.5580328059013112
7,0,0,0,0,514,511,0.2982109619201943
8,0,0,0,0,511,511,0.2982109619201943
9,0,0,0,0,504,504,-0.30804000736907855
10,0,0,0,0,504,504,-0.30804000736907855
11,0,0,0,0,508,508,0.038389117939077344
12,0,0,0,0,512,511,0.2982109619201943
13,0,0,0,0,511,511,0.2982109619201943
14,0,0,0,0,505,505,-0.2214327260420396
15,0,0,0,0,504,504,-0.30804000736907855
0,0,0,0,0,504,504,-0.30804000736907855
1,0,0,0,0,501,503,-0.39464728869611754
2,0,0,0,0,503,501,-0.5678618513501955
3,0,0,0,0,499,499,-0.7410764140042735
4,0,0,0,0,497,498,-0.8276836953313125
5,0,0,0,0,498,498,-0.8276836953313125
6,0,0,0,0,501,501,-0.5678618513501955
7,0,0,0,0,504,503,-0.39464728869611754
8,0,0,0,0,503,504,-0.30804000736907855
9,0,0,0,0,511,511,0.2982109619201943
10,0,0,0,0,516,516,0.7312473685553892
11,0,0,0,0,519,516,0.7312473685553892
12,0,0,0,0,512,512,0.38481824324723324
13,0,0,0,0,506,508,0.038389117939077344
14,0,0,0,0,508,508,0.038389117939077344
15,0,0,0,0,508,508,0.038389117939077344
0,0,0,0,0,507,507,-0.048218163387961636
1,0,0,0,0,505,505,-0.2214327260420396
2,0,0,0,0,503,504,-0.30804000736907855
3,0,0,0,0,504,504,-0.30804000736907855
4,0,0,0,0,504,504,-0.30804000736907855
5,0,0,0,0,503,504,-0.30804000736907855
6,0,0,0,0,505,505,-0.2214327260420396
7,0,0,0,0,506,505,-0.2214327260420396
8,0,0,0,0,505,505,-0.2214327260420396
9,0,0,0,0,505,505,-0.2214327260420396
10,0,0,0,0,503,504,-0.30804000736907855
11,0,0,0,0,504,503,-0.39464728869611754
12,0,0,0,0,502,502,-0.4812545700231565
13,0,0,0,0,498,502,-0.4812545700231565
14,0,0,0,0,504,504,-0.30804000736907855
15,0,0,0,0,509,509,0.12499639926611632
0,0,0,0,0,514,514,0.5580328059013112
1,0,0,0,0,519,516,0.7312473685553892
2,0,0,0,0,516,518,0.9044619312094672
3,0,0,0,0,518,516,0.7312473685553892
4,0,0,0,0,513,513,0.4714255245742722
5,0,0,0,0,507,507,-0.048218163387961636
6,0,0,0,0,504,505,-0.2214327260420396
7,0,0,0,0,505,504,-0.30804000736907855
8,0,0,0,0,501,505,-0.2214327260420396
9,0,0,0,0,505,502,-0.4812545700231565
10,0,0,0,0,502,502,-0.4812545700231565
11,0,0,0,0,502,502,-0.4812545700231565
12,0,0,0,0,503,502,-0.4812545700231565
13,0,0,0,0,502,503,-0.39464728869611754
14,0,0,0,0,504,504,-0.30804000736907855
15,0,0,0,0,504,504,-0.30804000736907855
0,0,0,0,0,506,506,-0.1348254447150006
1,0,0,0,0,507,507,-0.048218163387961636
2,0,0,0,0,508,508,0.038389117939077344
3,0,0,0,0,508,508,0.038389117939077344
4,0,0,0,0,508,508,0.038389117939077344
5,0,0,0,0,507,507,-0.048218163387961636
6,0,0,0,0,505,507,-0.048218163387961636
7,0,0,0,0,510,508,0.038389117939077344
8,0,0,0,0,508,509,0.12499639926611632
9,0,0,0,0,509,508,0.038389117939077344
10,0,0,0,0,507,509,0.12499639926611632
11,0,0,0,0,510,509,0.12499639926611632
12,0,0,0,0,509,509,0.12499639926611632
13,0,0,0,0,505,507,-0.048218163387961636
14,0,0,0,0,507,505,-0.2214327260420396
15,0,0,0,0,505,506,-0.1348254447150006
0,0,0,0,0,506,506,-0.1348254447150006
1,0,0,0,0,506,506,-0.1348254447150006
2,0,0,0,0,505,506,-0.1348254447150006
3,0,0,0,0,508,505,-0.2214327260420396
4,0,0,0,0,504,508,0.038389117939077344
5,0,0,0,0,508,507,-0.048218163387961636
6,0,0,0,0,507,507,-0.048218163387961636
7,0,0,0,0,506,507,-0.048218163387961636
8,0,0,0,0,512,506,-0.1348254447150006
9,0,0,0,0,506,508,0.038389117939077344
10,0,0,0,0,508,508,0.038389117939077344
11,0,0,0,0,508,508,0.038389117939077344
12,0,0,0,0,510,508,0.038389117939077344
13,0,0,0,0,504,506,-0.1348254447150006
14,0,0,0,0,506,504,-0.30804000736907855
15,0,0,0,0,504,506,-0.1348254447150006
0,0,0,0,0,510,510,0.2116036805931553
1,0,0,0,0,510,510,0.2116036805931553
2,0,0,0,0,508,508,0.038389117939077344
3,0,0,0,0,507,507,-0.048218163387961636
4,0,0,0,0,504,504,-0.30804000736907855
5,0,0,0,0,503,504,-0.30804000736907855
6,0,0,0,0,505,504,-0.30804000736907855
7,0,0,0,0,504,505,-0.2214327260420396
8,0,0,0,0,507,504,-0.30804000736907855
9,0,0,0,0,504,507,-0.048218163387961636
10,0,0,0,0,508,508,0.038389117939077344
11,0,0,0,0,508,508,0.038389117939077344
12,0,0,0,0,506,507,-0.048218163387961636
13,0,0,0,0,507,507,-0.048218163387961636
14,0,0,0,0,507,507,-0.048218163387961636
15,0,0,0,0,508,508,0.038389117939077344
0,0,0,0,0,508,508,0.038389117939077344
1,0,0,0,0,508,508,0.038389117939077344
2,0,0,0,0,508,508,0.038389117939077344
3,0,0,0,0,507,508,0.038389117939077344
4,0,0,0,0,508,508,0.038389117939077344
5,0,0,0,0,513,511,0.2982109619201943
6,0,0,0,0,511,511,0.2982109619201943
7,0,0,0,0,502,502,-0.4812545700231565
8,0,0,0,0,497,497,-0.9142909766583515
9,0,0,0,0,491,497,-0.9142909766583515
10,0,0,0,0,505,505,-0.2214327260420396
11,0,0,0,0,505,505,-0.2214327260420396
12,0,0,0,0,503,504,-0.30804000736907855
13,0,0,0,0,504,504,-0.30804000736907855
14,0,0,0,0,508,508,0.038389117939077344
15,0,0,0,0,511,509,0.12499639926611632
0,0,0,0,0,509,511,0.2982109619201943
1,0,0,0,0,511,511,0.2982109619201943
2,0,0,0,0,512,511,0.2982109619201943
3,0,0,0,0,511,511,0.2982109619201943
4,0,0,0,0,507,507,-0.048218163387961636
5,0,0,0,0,506,507,-0.048218163387961636
6,0,0,0,0,512,511,0.2982109619201943
7,0,0,0,0,511,511,0.2982109619201943
8,0,0,0,0,508,508,0.038389117939077344
9,0,0,0,0,504,504,-0.30804000736907855
10,0,0,0,0,498,498,-0.8276836953313125
11,0,0,0,0,496,498,-0.8276836953313125
12,0,0,0,0,502,500,-0.6544691326772345
13,0,0,0,0,500,500,-0.6544691326772345
14,0,0,0,0,495,500,-0.6544691326772345
15,0,0,0,0,500,500,-0.6544691326772345
0,0,0,0,0,516,516,0.7312473685553892
1,0,0,0,0,524,524,1.424105619171701
2,0,0,0,0,524,524,1.424105619171701
3,0,0,0,0,519,519,0.9910692125365062
4,0,0,0,0,517,517,0.8178546498824282
5,0,0,0,0,513,513,0.4714255245742722
6,0,0,0,0,511,512,0.38481824324723324
7,0,0,0,0,512,511,0.2982109619201943
8,0,0,0,0,510,510,0.2116036805931553
9,0,0,0,0,504,504,-0.30804000736907855
10,0,0,0,0,502,504,-0.30804000736907855
11,0,0,0,0,506,506,-0.1348254447150006
12,0,0,0,0,506,506,-0.1348254447150006
13,0,0,0,0,504,505,-0.2214327260420396
14,0,0,0,0,505,504,-0.30804000736907855
15,0,0,0,0,504,505,-0.2214327260420396
0,0,0,0,0,509,505,-0.2214327260420396
1,0,0,0,0,505,505,-0.2214327260420396
2,0,0,0,0,501,502,-0.4812545700231565
3,0,0,0,0,502,502,-0.4812545700231565
4,0,0,0,0,503,503,-0.39464728869611754
5,0,0,0,0,505,505,-0.2214327260420396
6,0,0,0,0,507,507,-0.048218163387961636
7,0,0,0,0,512,512,0.38481824324723324
8,0,0,0,0,514,513,0.4714255245742722
9,0,0,0,0,513,514,0.5580328059013112
10,0,0,0,0,515,513,0.4714255245742722
11,0,0,0,0,512,512,0.38481824324723324
12,0,0,0,0,509,509,0.12499639926611632
13,0,0,0,0,504,504,-0.30804000736907855
14,0,0,0,0,504,504,-0.30804000736907855
15,0,0,0,0,504,504,-0.30804000736907855
0,0,0,0,0,505,505,-0.2214327260420396
1,0,0,0,0,509,509,0.12499639926611632
2,0,0,0,0,509,509,0.12499639926611632
3,0,0,0,0,510,510,0.2116036805931553
4,0,0,0,0,515,510,0.2116036805931553
5,0,0,0,0,507,507,-0.048218163387961636
6,0,0,0,0,507,507,-0.048218163387961636
7,0,0,0,0,509,509,0.12499639926611632
8,0,0,0,0,510,509,0.12499639926611632
9,0,0,0,0,505,506,-0.1348254447150006
10,0,0,0,0,506,506,-0.1348254447150006
11,0,0,0,0,508,507,-0.048218163387961636
12,0,0,0,0,507,507,-0.048218163387961636
13,0,0,0,0,505,507,-0.048218163387961636
14,0,0,0,0,508,508,0.038389117939077344
15,0,0,0,0,509,509,0.12499639926611632
0,0,0,0,0,510,509,0.12499639926611632
1,0,0,0,0,509,509,0.12499639926611632
2,0,0,0,0,506,507,-0.048218163387961636
3,0,0,0,0,507,506,-0.1348254447150006
4,0,0,0,0,505,505,-0.2214327260420396
5,0,0,0,0,505,505,-0.2214327260420396
6,0,0,0,0,506,505,-0.2214327260420396
7,0,0,0,0,505,506,-0.1348254447150006
8,0,0,0,0,510,505,-0.2214327260420396
9,0,0,0,0,505,505,-0.2214327260420396
10,0,0,0,0,505,505,-0.2214327260420396
11,0,0,0,0,504,505,-0.2214327260420396
12,0,0,0,0,507,507,-0.048218163387961636
13,0,0,0,0,510,508,0.038389117939077344
14,0,0,0,0,508,508,0.038389117939077344
15,0,0,0,0,505,506,-0.1348254447150006
0,0,0,0,0,506,506,-0.1348254447150006
1,0,0,0,0,506,506,-0.1348254447150006
2,0,0,0,0,507,506,-0.1348254447150006
3,0,0,0,0,506,507,-0.048218163387961636
4,0,0,0,0,508,506,-0.1348254447150006
5,0,0,0,0,506,506,-0.1348254447150006
6,0,0,0,0,505,506,-0.1348254447150006
7,0,0,0,0,506,506,-0.1348254447150006
8,0,0,0,0,509,506,-0.1348254447150006
9,0,0,0,0,504,504,-0.30804000736907855
10,0,0,0,0,503,504,-0.30804000736907855
11,0,0,0,0,508,508,0.038389117939077344
12,0,0,0,0,508,508,0.038389117939077344
13,0,0,0,0,503,504,-0.30804000736907855
14,0,0,0,0,504,504,-0.30804000736907855
15,0,0,0,0,504,504,-0.30804000736907855
0,0,0,0,0,504,504,-0.30804000736907855
1,0,0,0,0,502,504,-0.30804000736907855
2,0,0,0,0,504,504,-0.30804000736907855
3,0,0,0,0,509,509,0.12499639926611632
4,0,0,0,0,509,509,0.12499639926611632
5,0,0,0,0,508,509,0.12499639926611632
6,0,0,0,0,513,508,0.038389117939077344
7,0,0,0,0,507,507,-0.048218163387961636
8,0,0,0,0,497,497,-0.9142909766583515
9,0,0,0,0,490,493,-1.2607201019665073
10,0,0,0,0,493,493,-1.2607201019665073
11,0,0,0,0,513,513,0.4714255245742722
12,0,0,0,0,521,521,1.1642837751905841
13,0,0,0,0,524,524,1.424105619171701
14,0,0,0,0,525,524,1.424105619171701
15,0,0,0,0,512,512,0.38481824324723324
0,0,0,0,0,506,506,-0.1348254447150006
1,0,0,0,0,500,500,-0.6544691326772345
2,0,0,0,0,500,500,-0.6544691326772345
3,0,0,0,0,504,503,-0.39464728869611754
4,0,0,0,0,503,503,-0.39464728869611754
5,0,0,0,0,503,503,-0.39464728869611754
6,0,0,0,0,505,505,-0.2214327260420396
7,0,0,0,0,505,505,-0.2214327260420396
8,0,0,0,0,505,505,-0.2214327260420396
9,0,0,0,0,506,506,-0.1348254447150006
10,0,0,0,0,506,506,-0.1348254447150006
11,0,0,0,0,510,509,0.12499639926611632
12,0,0,0,0,509,510,0.2116036805931553
13,0,0,0,0,510,509,0.12499639926611632
14,0,0,0,0,509,509,0.12499639926611632
15,0,0,0,0,508,509,0.12499639926611632
0,0,0,0,0,509,508,0.038389117939077344
1,0,0,0,0,506,508,0.038389117939077344
2,0,0,0,0,508,506,-0.1348254447150006
3,0,0,0,0,503,504,-0.30804000736907855
4,0,0,0,0,504,504,-0.30804000736907855
5,0,0,0,0,505,504,-0.30804000736907855
6,0,0,0,0,504,505,-0.2214327260420396
7,0,0,0,0,507,506,-0.1348254447150006
8,0,0,0,0,506,506,-0.1348254447150006
9,0,0,0,0,504,506,-0.1348254447150006
10,0,0,0,0,506,506,-0.1348254447150006
11,0,0,0,0,509,509,0.12499639926611632
12,0,0,0,0,509,509,0.12499639926611632
13,0,0,0,0,504,509,0.12499639926611632
14,0,0,0,0,509,506,-0.1348254447150006
15,0,0,0,0,506,509,0.12499639926611632
0,0,0,0,0,511,508,0.038389117939077344
1,0,0,0,0,508,508,0.038389117939077344
2,0,0,0,0,504,504,-0.30804000736907855
3,0,0,0,0,502,504,-0.30804000736907855
4,0,0,0,0,509,509,0.12499639926611632
5,0,0,0,0,511,511,0.2982109619201943
6,0,0,0,0,517,516,0.7312473685553892
7,0,0,0,0,516,516,0.7312473685553892
8,0,0,0,0,514,514,0.5580328059013112
9,0,0,0,0,505,505,-0.2214327260420396
10,0,0,0,0,502,504,-0.30804000736907855
11,0,0,0,0,504,504,-0.30804000736907855
12,0,0,0,0,505,505,-0.2214327260420396
13,0,0,0,0,506,506,-0.1348254447150006
14,0,0,0,0,509,508,0.038389117939077344
15,0,0,0,0,508,508,0.038389117939077344
0,0,0,0,0,508,508,0.038389117939077344
1,0,0,0,0,506,508,0.038389117939077344
2,0,0,0,0,509,508,0.038389117939077344
3,0,0,0,0,508,509,0.12499639926611632
4,0,0,0,0,511,508,0.038389117939077344
5,0,0,0,0,505,509,0.12499639926611632
6,0,0,0,0,509,508,0.038389117939077344
7,0,0,0,0,508,508,0.038389117939077344
8,0,0,0,0,506,506,-0.1348254447150006
9,0,0,0,0,500,503,-0.39464728869611754
10,0,0,0,0,503,503,-0.39464728869611754
11,0,0,0,0,506,505,-0.2214327260420396
12,0,0,0,0,505,506,-0.1348254447150006
13,0,0,0,0,509,509,0.12499639926611632
14,0,0,0,0,510,510,0.2116036805931553
15,0,0,0,0,511,511,0.2982109619201943
0,0,0,0,0,522,518,0.9044619312094672
1,0,0,0,0,518,518,0.9044619312094672
2,0,0,0,0,514,514,0.5580328059013112
3,0,0,0,0,507,508,0.038389117939077344
4,0,0,0,0,508,507,-0.048218163387961636
5,0,0,0,0,507,507,-0.048218163387961636
6,0,0,0,0,507,507,-0.048218163387961636
7,0,0,0,0,507,507,-0.048218163387961636
8,0,0,0,0,506,506,-0.1348254447150006
9,0,0,0,0,506,506,-0.1348254447150006
10,0,0,0,0,505,505,-0.2214327260420396
11,0,0,0,0,505,505,-0.2214327260420396
12,0,0,0,0,506,506,-0.1348254447150006
13,0,0,0,0,506,506,-0.1348254447150006
14,0,0,0,0,506,506,-0.1348254447150006
15,0,0,0,0,503,504,-0.30804000736907855
0,0,0,0,0,504,504,-0.30804000736907855
1,0,0,0,0,507,506,-0.1348254447150006
2,0,0,0,0,506,507,-0.048218163387961636
3,0,0,0,0,508,508,0.038389117939077344
4,0,0,0,0,508,508,0.038389117939077344
5,0,0,0,0,505,505,-0.2214327260420396
6,0,0,0,0,502,502,-0.4812545700231565
7,0,0,0,0,502,502,-0.4812545700231565
8,0,0,0,0,505,503,-0.39464728869611754
9,0,0,0,0,503,503,-0.39464728869611754
10,0,0,0,0,503,503,-0.39464728869611754
11,0,0,0,0,502,503,-0.39464728869611754
12,0,0,0,0,512,512,0.38481824324723324
13,0,0,0,0,519,517,0.8178546498824282
14,0,0,0,0,517,517,0.8178546498824282
15,0,0,0,0,510,510,0.2116036805931553
0,0,0,0,0,502,510,0.2116036805931553
1,0,0,0,0,514,514,0.5580328059013112
2,0,0,0,0,524,514,0.5580328059013112
3,0,0,0,0,507,507,-0.048218163387961636
4,0,0,0,0,503,504,-0.30804000736907855
5,0,0,0,0,504,503,-0.39464728869611754
6,0,0,0,0,502,502,-0.4812545700231565
7,0,0,0,0,502,502,-0.4812545700231565
8,0,0,0,0,507,507,-0.048218163387961636
9,0,0,0,0,508,507,-0.048218163387961636
10,0,0,0,0,507,507,-0.048218163387961636
11,0,0,0,0,507,507,-0.048218163387961636
12,0,0,0,0,505,505,-0.2214327260420396
13,0,0,0,0,505,505,-0.2214327260420396
14,0,0,0,0,505,505,-0.2214327260420396
15,0,0,0,0,507,507,-0.048218163387961636
0,0,0,0,0,509,509,0.12499639926611632
1,0,0,0,0,509,509,0.12499639926611632
2,0,0,0,0,509,509,0.12499639926611632
3,0,0,0,0,505,505,-0.2214327260420396
4,0,0,0,0,505,505,-0.2214327260420396
5,0,0,0,0,506,506,-0.1348254447150006
6,0,0,0,0,506,506,-0.1348254447150006
7,0,0,0,0,506,506,-0.1348254447150006
8,0,0,0,0,505,505,-0.2214327260420396
9,0,0,0,0,505,505,-0.2214327260420396
10,0,0,0,0,504,505,-0.2214327260420396
11,0,0,0,0,507,507,-0.048218163387961636
12,0,0,0,0,508,508,0.038389117939077344
13,0,0,0,0,510,508,0.038389117939077344
14,0,0,0,0,508,508,0.038389117939077344
15,0,0,0,0,507,508,0.038389117939077344
0,0,0,0,0,508,508,0.038389117939077344
1,0,0,0,0,509,508,0.038389117939077344
2,0,0,0,0,508,508,0.038389117939077344
3,0,0,0,0,507,508,0.038389117939077344
4,0,0,0,0,511,510,0.2116036805931553
5,0,0,0,0,510,510,0.2116036805931553
6,0,0,0,0,508,508,0.038389117939077344
7,0,0,0,0,506,506,-0.1348254447150006
8,0,0,0,0,504,505,-0.2214327260420396
9,0,0,0,0,505,505,-0.2214327260420396
10,0,0,0,0,506,506,-0.1348254447150006
11,0,0,0,0,506,506,-0.1348254447150006
12,0,0,0,0,504,504,-0.30804000736907855
13,0,0,0,0,499,499,-0.7410764140042735
14,0,0,0,0,499,499,-0.7410764140042735
15,0,0,0,0,506,506,-0.1348254447150006
0,0,0,0,0,512,512,0.38481824324723324
1,0,0,0,0,519,517,0.8178546498824282
2,0,0,0,0,517,517,0.8178546498824282
3,0,0,0,0,517,517,0.8178546498824282
4,0,0,0,0,510,510,0.2116036805931553
5,0,0,0,0,508,508,0.038389117939077344
6,0,0,0,0,508,508,0.038389117939077344
7,0,0,0,0,508,508,0.038389117939077344
8,0,0,0,0,508,508,0.038389117939077344
9,0,0,0,0,509,509,0.12499639926611632
10,0,0,0,0,510,509,0.12499639926611632
11,0,0,0,0,505,505,-0.2214327260420396
12,0,0,0,0,504,505,-0.2214327260420396
13,0,0,0,0,506,506,-0.1348254447150006
14,0,0,0,0,507,506,-0.1348254447150006
15,0,0,0,0,506,506,-0.1348254447150006
0,0,0,0,0,505,505,-0.2214327260420396
1,0,0,0,0,502,504,-0.30804000736907855
2,0,0,0,0,504,504,-0.30804000736907855
3,0,0,0,0,506,505,-0.2214327260420396
4,0,0,0,0,505,506,-0.1348254447150006
5,0,0,0,0,510,507,-0.048218163387961636
6,0,0,0,0,507,509,0.12499639926611632
7,0,0,0,0,509,509,0.12499639926611632
8,0,0,0,0,509,509,0.12499639926611632
9,0,0,0,0,510,509,0.12499639926611632
10,0,0,0,0,509,510,0.2116036805931553
11,0,0,0,0,511,510,0.2116036805931553
12,0,0,0,0,510,510,0.2116036805931553
13,0,0,0,0,508,508,0.038389117939077344
14,0,0,0,0,508,508,0.038389117939077344
15,0,0,0,0,505,508,0.038389117939077344
0,0,0,0,0,510,506,-0.1348254447150006
1,0,0,0,0,506,506,-0.1348254447150006
2,0,0,0,0,506,506,-0.1348254447150006
3,0,0,0,0,504,506,-0.1348254447150006
4,0,0,0,0,506,506,-0.1348254447150006
5,0,0,0,0,506,506,-0.1348254447150006
6,0,0,0,0,507,506,-0.1348254447150006
7,0,0,0,0,506,507,-0.048218163387961636
8,0,0,0,0,507,507,-0.048218163387961636
9,0,0,0,0,509,508,0.038389117939077344
10,0,0,0,0,508,508,0.038389117939077344
11,0,0,0,0,506,508,0.038389117939077344
12,0,0,0,0,510,509,0.12499639926611632
13,0,0,0,0,509,510,0.2116036805931553
14,0,0,0,0,511,509,0.12499639926611632
15,0,0,0,0,507,507,-0.048218163387961636
0,0,0,0,0,503,505,-0.2214327260420396
1,0,0,0,0,505,505,-0.2214327260420396
2,0,0,0,0,507,507,-0.048218163387961636
3,0,0,0,0,512,507,-0.048218163387961636
4,0,0,0,0,507,507,-0.048218163387961636
5,0,0,0,0,506,507,-0.048218163387961636
6,0,0,0,0,507,507,-0.048218163387961636
7,0,0,0,0,508,507,-0.048218163387961636
8,0,0,0,0,504,504,-0.30804000736907855
9,0,0,0,0,501,502,-0.4812545700231565
10,0,0,0,0,502,501,-0.5678618513501955
11,0,0,0,0,501,502,-0.4812545700231565
12,0,0,0,0,507,507,-0.048218163387961636
13,0,0,0,0,510,510,0.2116036805931553
14,0,0,0,0,515,514,0.5580328059013112
15,0,0,0,0,514,515,0.6446400872283502
0,0,0,0,0,515,514,0.5580328059013112
1,0,0,0,0,509,509,0.12499639926611632
2,0,0,0,0,503,504,-0.30804000736907855
3,0,0,0,0,504,504,-0.30804000736907855
4,0,0,0,0,508,508,0.038389117939077344
5,0,0,0,0,511,511,0.2982109619201943
6,0,0,0,0,512,511,0.2982109619201943
7,0,0,0,0,508,508,0.038389117939077344
8,0,0,0,0,508,508,0.038389117939077344
9,0,0,0,0,507,507,-0.048218163387961636
10,0,0,0,0,502,503,-0.39464728869611754
11,0,0,0,0,503,503,-0.39464728869611754
12,0,0,0,0,504,504,-0.30804000736907855
13,0,0,0,0,506,505,-0.2214327260420396
14,0,0,0,0,505,506,-0.1348254447150006
15,0,0,0,0,508,507,-0.048218163387961636
0,0,0,0,0,507,508,0.038389117939077344
1,0,0,0,0,510,507,-0.048218163387961636
2,0,0,0,0,507,507,-0.048218163387961636
3,0,0,0,0,504,507,-0.048218163387961636
4,0,0,0,0,507,507,-0.048218163387961636
5,0,0,0,0,508,507,-0.048218163387961636
6,0,0,0,0,507,508,0.038389117939077344
7,0,0,0,0,510,509,0.12499639926611632
8,0,0,0,0,509,510,0.2116036805931553
9,0,0,0,0,511,509,0.12499639926611632
10,0,0,0,0,508,508,0.038389117939077344
11,0,0,0,0,506,506,-0.1348254447150006
12,0,0,0,0,504,504,-0.30804000736907855
13,0,0,0,0,504,504,-0.30804000736907855
14,0,0,0,0,505,505,-0.2214327260420396
15,0,0,0,0,508,505,-0.2214327260420396
0,0,0,0,0,505,508,0.038389117939077344
1,0,0,0,0,508,508,0.038389117939077344
2,0,0,0,0,515,509,0.12499639926611632
3,0,0,0,0,509,509,0.12499639926611632
4,0,0,0,0,505,505,-0.2214327260420396
5,0,0,0,0,496,499,-0.7410764140042735
6,0,0,0,0,499,499,-0.7410764140042735
7,0,0,0,0,508,508,0.038389117939077344
8,0,0,0,0,508,508,0.038389117939077344
9,0,0,0,0,506,508,0.038389117939077344
10,0,0,0,0,509,509,0.12499639926611632
11,0,0,0,0,511,510,0.2116036805931553
12,0,0,0,0,510,510,0.2116036805931553
13,0,0,0,0,509,510,0.2116036805931553
14,0,0,0,0,510,510,0.2116036805931553
15,0,0,0,0,511,511,0.2982109619201943
0,0,0,0,0,516,516,0.7312473685553892
1,0,0,0,0,516,516,0.7312473685553892
2,0,0,0,0,508,508,0.038389117939077344
3,0,0,0,0,505,505,-0.2214327260420396
4,0,0,0,0,505,505,-0.2214327260420396
5,0,0,0,0,506,505,-0.2214327260420396
6,0,0,0,0,503,505,-0.2214327260420396
7,0,0,0,0,505,505,-0.2214327260420396
8,0,0,0,0,508,508,0.038389117939077344
9,0,0,0,0,509,508,0.038389117939077344
10,0,0,0,0,505,505,-0.2214327260420396
11,0,0,0,0,504,504,-0.30804000736907855
12,0,0,0,0,504,504,-0.30804000736907855
13,0,0,0,0,508,508,0.038389117939077344
14,0,0,0,0,511,510,0.2116036805931553
15,0,0,0,0,510,511,0.2982109619201943
0,0,0,0,0,511,510,0.2116036805931553
1,0,0,0,0,510,511,0.2982109619201943
2,0,0,0,0,512,512,0.38481824324723324
3,0,0,0,0,515,513,0.4714255245742722
4,0,0,0,0,513,513,0.4714255245742722
5,0,0,0,0,508,508,0.038389117939077344
6,0,0,0,0,506,507,-0.048218163387961636
7,0,0,0,0,507,507,-0.048218163387961636
8,0,0,0,0,507,507,-0.048218163387961636
9,0,0,0,0,504,507,-0.048218163387961636
10,0,0,0,0,507,504,-0.30804000736907855
11,0,0,0,0,503,503,-0.39464728869611754
12,0,0,0,0,500,503,-0.39464728869611754
13,0,0,0,0,515,515,0.6446400872283502
14,0,0,0,0,526,520,1.077676493863545
15,0,0,0,0,520,520,1.077676493863545
0,0,0,0,0,518,518,0.9044619312094672
1,0,0,0,0,518,518,0.9044619312094672
2,0,0,0,0,523,518,0.9044619312094672
3,0,0,0,0,507,507,-0.048218163387961636
4,0,0,0,0,481,481,-2.300007477890975
5,0,0,0,0,471,481,-2.300007477890975
6,0,0,0,0,493,493,-1.2607201019665073
7,0,0,0,0,503,503,-0.39464728869611754
8,0,0,0,0,506,506,-0.1348254447150006
9,0,0,0,0,513,513,0.4714255245742722
10,0,0,0,0,514,514,0.5580328059013112
11,0,0,0,0,514,514,0.5580328059013112
12,0,0,0,0,511,511,0.2982109619201943
13,0,0,0,0,502,504,-0.30804000736907855
14,0,0,0,0,504,504,-0.30804000736907855
15,0,0,0,0,508,508,0.038389117939077344
0,0,0,0,0,508,508,0.038389117939077344
1,0,0,0,0,506,506,-0.1348254447150006
2,0,0,0,0,501,506,-0.1348254447150006
3,0,0,0,0,507,507,-0.048218163387961636
4,0,0,0,0,510,510,0.2116036805931553
5,0,0,0,0,510,510,0.2116036805931553
6,0,0,0,0,508,509,0.12499639926611632
7,0,0,0,0,509,509,0.12499639926611632
8,0,0,0,0,515,513,0.4714255245742722
9,0,0,0,0,513,513,0.4714255245742722
10,0,0,0,0,509,511,0.2982109619201943
11,0,0,0,0,511,511,0.2982109619201943
12,0,0,0,0,514,511,0.2982109619201943
13,0,0,0,0,508,508,0.038389117939077344
14,0,0,0,0,502,503,-0.39464728869611754
15,0,0,0,0,503,503,-0.39464728869611754
0,0,0,0,0,505,503,-0.39464728869611754
1,0,0,0,0,503,503,-0.39464728869611754
2,0,0,0,0,502,503,-0.39464728869611754
3,0,0,0,0,507,507,-0.048218163387961636
4,0,0,0,0,507,507,-0.048218163387961636
5,0,0,0,0,508,507,-0.048218163387961636
6,0,0,0,0,505,507,-0.048218163387961636
7,0,0,0,0,507,507,-0.048218163387961636
8,0,0,0,0,508,507,-0.048218163387961636
9,0,0,0,0,506,506,-0.1348254447150006
10,0,0,0,0,506,506,-0.1348254447150006
11,0,0,0,0,503,503,-0.39464728869611754
12,0,0,0,0,499,503,-0.39464728869611754
13,0,0,0,0,507,507,-0.048218163387961636
14,0,0,0,0,508,508,0.038389117939077344
15,0,0,0,0,513,511,0.2982109619201943
0,0,0,0,0,511,513,0.4714255245742722
1,0,0,0,0,515,515,0.6446400872283502
2,0,0,0,0,516,515,0.6446400872283502
3,0,0,0,0,509,509,0.12499639926611632
4,0,0,0,0,507,507,-0.048218163387961636
5,0,0,0,0,503,503,-0.39464728869611754
6,0,0,0,0,501,503,-0.39464728869611754
7,0,0,0,0,504,504,-0.30804000736907855
8,0,0,0,0,504,504,-0.30804000736907855
9,0,0,0,0,504,504,-0.30804000736907855
10,0,0,0,0,507,507,-0.048218163387961636
11,0,0,0,0,507,507,-0.048218163387961636
12,0,0,0,0,509,509,0.12499639926611632
13,0,0,0,0,509,509,0.12499639926611632
14,0,0,0,0,512,512,0.38481824324723324
15,0,0,0,0,518,515,0.6446400872283502
0,0,0,0,0,515,515,0.6446400872283502
1,0,0,0,0,503,503,-0.39464728869611754
2,0,0,0,0,496,500,-0.6544691326772345
3,0,0,0,0,500,500,-0.6544691326772345
4,0,0,0,0,508,508,0.038389117939077344
5,0,0,0,0,508,508,0.038389117939077344
6,0,0,0,0,506,508,0.038389117939077344
7,0,0,0,0,509,506,-0.1348254447150006
8,0,0,0,0,504,504,-0.30804000736907855
9,0,0,0,0,502,504,-0.30804000736907855
10,0,0,0,0,506,506,-0.1348254447150006
11,0,0,0,0,507,507,-0.048218163387961636
12,0,0,0,0,509,509,0.12499639926611632
13,0,0,0,0,512,512,0.38481824324723324
14,0,0,0,0,512,512,0.38481824324723324
15,0,0,0,0,514,514,0.5580328059013112
0,0,0,0,0,518,514,0.5580328059013112
1,0,0,0,0,512,512,0.38481824324723324
2,0,0,0,0,507,509,0.12499639926611632
3,0,0,0,0,509,509,0.12499639926611632
4,0,0,0,0,512,509,0.12499639926611632
5,0,0,0,0,508,508,0.038389117939077344
6,0,0,0,0,508,508,0.038389117939077344
7,0,0,0,0,505,505,-0.2214327260420396
8,0,0,0,0,504,504,-0.30804000736907855
9,0,0,0,0,502,502,-0.4812545700231565
10,0,0,0,0,500,500,-0.6544691326772345
11,0,0,0,0,500,500,-0.6544691326772345
12,0,0,0,0,508,508,0.038389117939077344
13,0,0,0,0,512,512,0.38481824324723324
14,0,0,0,0,515,515,0.6446400872283502
15,0,0,0,0,520,515,0.6446400872283502
0,0,0,0,0,513,513,0.4714255245742722
1,0,0,0,0,508,508,0.038389117939077344
2,0,0,0,0,504,504,-0.30804000736907855
3,0,0,0,0,497,500,-0.6544691326772345
4,0,0,0,0,500,500,-0.6544691326772345
5,0,0,0,0,504,504,-0.30804000736907855
6,0,0,0,0,510,510,0.2116036805931553
7,0,0,0,0,517,517,0.8178546498824282
8,0,0,0,0,519,519,0.9910692125365062
9,0,0,0,0,524,519,0.9910692125365062
10,0,0,0,0,515,515,0.6446400872283502
11,0,0,0,0,502,503,-0.39464728869611754
12,0,0,0,0,503,503,-0.39464728869611754
13,0,0,0,0,504,504,-0.30804000736907855
14,0,0,0,0,506,505,-0.2214327260420396
15,0,0,0,0,505,505,-0.2214327260420396
0,0,0,0,0,504,504,-0.30804000736907855
1,0,0,0,0,503,503,-0.39464728869611754
2,0,0,0,0,500,503,-0.39464728869611754
3,0,0,0,0,507,507,-0.048218163387961636
4,0,0,0,0,508,508,0.038389117939077344
5,0,0,0,0,513,508,0.038389117939077344
6,0,0,0,0,508,508,0.038389117939077344
7,0,0,0,0,507,507,-0.048218163387961636
8,0,0,0,0,505,507,-0.048218163387961636
9,0,0,0,0,509,507,-0.048218163387961636
10,0,0,0,0,507,509,0.12499639926611632
11,0,0,0,0,509,509,0.12499639926611632
12,0,0,0,0,510,510,0.2116036805931553
13,0,0,0,0,510,510,0.2116036805931553
14,0,0,0,0,505,505,-0.2214327260420396
15,0,0,0,0,505,505,-0.2214327260420396
0,0,0,0,0,505,505,-0.2214327260420396
1,0,0,0,0,503,504,-0.30804000736907855
2,0,0,0,0,504,503,-0.39464728869611754
3,0,0,0,0,503,504,-0.30804000736907855
4,0,0,0,0,505,505,-0.2214327260420396
5,0,0,0,0,506,506,-0.1348254447150006
6,0,0,0,0,507,507,-0.048218163387961636
7,0,0,0,0,510,507,-0.048218163387961636
8,0,0,0,0,507,510,0.2116036805931553
9,0,0,0,0,511,508,0.038389117939077344
10,0,0,0,0,508,508,0.038389117939077344
11,0,0,0,0,508,508,0.038389117939077344
12,0,0,0,0,506,506,-0.1348254447150006
13,0,0,0,0,505,506,-0.1348254447150006
14,0,0,0,0,507,507,-0.048218163387961636
15,0,0,0,0,510,509,0.12499639926611632
0,0,0,0,0,509,509,0.12499639926611632
1,0,0,0,0,508,508,0.038389117939077344
2,0,0,0,0,507,508,0.038389117939077344
3,0,0,0,0,508,508,0.038389117939077344
4,0,0,0,0,508,508,0.038389117939077344
5,0,0,0,0,505,505,-0.2214327260420396
6,0,0,0,0,504,505,-0.2214327260420396
7,0,0,0,0,512,509,0.12499639926611632
8,0,0,0,0,509,509,0.12499639926611632
9,0,0,0,0,507,507,-0.048218163387961636
10,0,0,0,0,505,506,-0.1348254447150006
11,0,0,0,0,506,506,-0.1348254447150006
12,0,0,0,0,507,506,-0.1348254447150006
13,0,0,0,0,505,507,-0.048218163387961636
14,0,0,0,0,508,508,0.038389117939077344
15,0,0,0,0,508,508,0.038389117939077344
0,0,0,0,0,509,509,0.12499639926611632
1,0,0,0,0,509,509,0.12499639926611632
2,0,0,0,0,510,510,0.2116036805931553
3,0,0,0,0,510,510,0.2116036805931553
4,0,0,0,0,510,510,0.2116036805931553
5,0,0,0,0,511,510,0.2116036805931553
6,0,0,0,0,510,510,0.2116036805931553
7,0,0,0,0,507,507,-0.048218163387961636
8,0,0,0,0,505,506,-0.1348254447150006
9,0,0,0,0,506,505,-0.2214327260420396
10,0,0,0,0,502,502,-0.4812545700231565
11,0,0,0,0,502,502,-0.4812545700231565
12,0,0,0,0,504,504,-0.30804000736907855
13,0,0,0,0,507,507,-0.048218163387961636
14,0,0,0,0,508,507,-0.048218163387961636
15,0,0,0,0,507,507,-0.048218163387961636
0,0,0,0,0,506,507,-0.048218163387961636
1,0,0,0,0,510,510,0.2116036805931553
2,0,0,0,0,512,512,0.38481824324723324
3,0,0,0,0,523,519,0.9910692125365062
4,0,0,0,0,519,519,0.9910692125365062
5,0,0,0,0,510,510,0.2116036805931553
6,0,0,0,0,504,504,-0.30804000736907855
7,0,0,0,0,498,502,-0.4812545700231565
8,0,0,0,0,502,502,-0.4812545700231565
9,0,0,0,0,502,502,-0.4812545700231565
10,0,0,0,0,503,503,-0.39464728869611754
11,0,0,0,0,505,505,-0.2214327260420396
12,0,0,0,0,507,507,-0.048218163387961636
13,0,0,0,0,507,507,-0.048218163387961636
14,0,0,0,0,506,507,-0.048218163387961636
15,0,0,0,0,507,506,-0.1348254447150006
0,0,0,0,0,506,507,-0.048218163387961636
1,0,0,0,0,507,506,-0.1348254447150006
2,0,0,0,0,506,506,-0.1348254447150006
3,0,0,0,0,506,506,-0.1348254447150006
4,0,0,0,0,504,506,-0.1348254447150006
5,0,0,0,0,506,506,-0.1348254447150006
6,0,0,0,0,508,508,0.038389117939077344
7,0,0,0,0,508,508,0.038389117939077344
8,0,0,0,0,508,508,0.038389117939077344
9,0,0,0,0,510,509,0.12499639926611632
10,0,0,0,0,509,509,0.12499639926611632
11,0,0,0,0,509,509,0.12499639926611632
12,0,0,0,0,510,509,0.12499639926611632
13,0,0,0,0,508,509,0.12499639926611632
14,0,0,0,0,509,508,0.038389117939077344
15,0,0,0,0,507,507,-0.048218163387961636
0,0,0,0,0,505,506,-0.1348254447150006
1,0,0,0,0,506,506,-0.1348254447150006
2,0,0,0,0,508,506,-0.1348254447150006
3,0,0,0,0,505,508,0.038389117939077344
4,0,0,0,0,508,505,-0.2214327260420396
5,0,0,0,0,505,506,-0.1348254447150006
6,0,0,0,0,506,505,-0.2214327260420396
7,0,0,0,0,504,504,-0.30804000736907855
8,0,0,0,0,497,500,-0.6544691326772345
9,0,0,0,0,500,500,-0.6544691326772345
10,0,0,0,0,505,504,-0.30804000736907855
11,0,0,0,0,504,505,-0.2214327260420396
12,0,0,0,0,507,507,-0.048218163387961636
13,0,0,0,0,513,513,0.4714255245742722
14,0,0,0,0,521,521,1.1642837751905841
15,0,0,0,0,526,521,1.1642837751905841
0,0,0,0,0,517,517,0.8178546498824282
1,0,0,0,0,506,507,-0.048218163387961636
2,0,0,0,0,507,507,-0.048218163387961636
3,0,0,0,0,512,507,-0.048218163387961636
4,0,0,0,0,500,500,-0.6544691326772345
5,0,0,0,0,491,500,-0.6544691326772345
6,0,0,0,0,500,500,-0.6544691326772345
7,0,0,0,0,508,508,0.038389117939077344
8,0,0,0,0,512,512,0.38481824324723324
9,0,0,0,0,516,512,0.38481824324723324
10,0,0,0,0,512,512,0.38481824324723324
11,0,0,0,0,512,512,0.38481824324723324
12,0,0,0,0,510,510,0.2116036805931553
13,0,0,0,0,508,508,0.038389117939077344
14,0,0,0,0,504,504,-0.30804000736907855
15,0,0,0,0,503,504,-0.30804000736907855
0,0,0,0,0,504,504,-0.30804000736907855
1,0,0,0,0,505,505,-0.2214327260420396
2,0,0,0,0,509,507,-0.048218163387961636
3,0,0,0,0,507,507,-0.048218163387961636
4,0,0,0,0,505,507,-0.048218163387961636
5,0,0,0,0,508,508,0.038389117939077344
6,0,0,0,0,508,508,0.038389117939077344
7,0,0,0,0,508,508,0.038389117939077344
8,0,0,0,0,508,508,0.038389117939077344
9,0,0,0,0,508,508,0.038389117939077344
10,0,0,0,0,508,508,0.038389117939077344
11,0,0,0,0,507,508,0.038389117939077344
12,0,0,0,0,508,507,-0.048218163387961636
13,0,0,0,0,507,507,-0.048218163387961636
14,0,0,0,0,506,507,-0.048218163387961636
15,0,0,0,0,509,506,-0.1348254447150006
0,0,0,0,0,505,508,0.038389117939077344
1,0,0,0,0,508,507,-0.048218163387961636
2,0,0,0,0,507,507,-0.048218163387961636
3,0,0,0,0,507,507,-0.048218163387961636
4,0,0,0,0,504,506,-0.1348254447150006
5,0,0,0,0,506,505,-0.2214327260420396
6,0,0,0,0,505,506,-0.1348254447150006
7,0,0,0,0,506,506,-0.1348254447150006
8,0,0,0,0,507,507,-0.048218163387961636
9,0,0,0,0,513,512,0.38481824324723324
10,0,0,0,0,512,512,0.38481824324723324
11,0,0,0,0,510,510,0.2116036805931553
12,0,0,0,0,508,510,0.2116036805931553
13,0,0,0,0,515,514,0.5580328059013112
14,0,0,0,0,514,514,0.5580328059013112
15,0,0,0,0,509,509,0.12499639926611632
0,0,0,0,0,508,508,0.038389117939077344
1,0,0,0,0,505,505,-0.2214327260420396
2,0,0,0,0,503,503,-0.39464728869611754
3,0,0,0,0,503,503,-0.39464728869611754
4,0,0,0,0,503,503,-0.39464728869611754
5,0,0,0,0,507,507,-0.048218163387961636
6,0,0,0,0,508,508,0.038389117939077344
7,0,0,0,0,510,509,0.12499639926611632
8,0,0,0,0,509,509,0.12499639926611632
9,0,0,0,0,508,508,0.038389117939077344
10,0,0,0,0,507,508,0.038389117939077344
11,0,0,0,0,509,508,0.038389117939077344
12,0,0,0,0,508,509,0.12499639926611632
13,0,0,0,0,509,508,0.038389117939077344
14,0,0,0,0,507,507,-0.048218163387961636
15,0,0,0,0,507,507,-0.048218163387961636
0,0,0,0,0,508,507,-0.048218163387961636
1,0,0,0,0,506,508,0.038389117939077344
2,0,0,0,0,508,506,-0.1348254447150006
3,0,0,0,0,506,508,0.038389117939077344
4,0,0,0,0,510,506,-0.1348254447150006
5,0,0,0,0,506,506,-0.1348254447150006
6,0,0,0,0,505,506,-0.1348254447150006
7,0,0,0,0,507,507,-0.048218163387961636
8,0,0,0,0,507,507,-0.048218163387961636
9,0,0,0,0,507,507,-0.048218163387961636
10,0,0,0,0,508,508,0.038389117939077344
11,0,0,0,0,508,508,0.038389117939077344
12,0,0,0,0,510,509,0.12499639926611632
13,0,0,0,0,509,510,0.2116036805931553
14,0,0,0,0,510,510,0.2116036805931553
15,0,0,0,0,511,510,0.2116036805931553
0,0,0,0,0,508,509,0.12499639926611632
1,0,0,0,0,509,509,0.12499639926611632
2,0,0,0,0,509,509,0.12499639926611632
3,0,0,0,0,509,509,0.12499639926611632
4,0,0,0,0,506,506,-0.1348254447150006
5,0,0,0,0,502,502,-0.4812545700231565
6,0,0,0,0,499,502,-0.4812545700231565
7,0,0,0,0,509,509,0.12499639926611632
8,0,0,0,0,512,512,0.38481824324723324
9,0,0,0,0,512,512,0.38481824324723324
10,0,0,0,0,515,512,0.38481824324723324
11,0,0,0,0,510,515,0.6446400872283502
12,0,0,0,0,518,513,0.4714255245742722
13,0,0,0,0,513,513,0.4714255245742722
14,0,0,0,0,503,505,-0.2214327260420396
15,0,0,0,0,505,505,-0.2214327260420396
0,0,0,0,0,507,505,-0.2214327260420396
1,0,0,0,0,504,505,-0.2214327260420396
2,0,0,0,0,505,505,-0.2214327260420396
3,0,0,0,0,507,507,-0.048218163387961636
4,0,0,0,0,509,507,-0.048218163387961636
5,0,0,0,0,505,505,-0.2214327260420396
6,0,0,0,0,503,504,-0.30804000736907855
7,0,0,0,0,504,504,-0.30804000736907855
8,0,0,0,0,507,507,-0.048218163387961636
9,0,0,0,0,507,507,-0.048218163387961636
10,0,0,0,0,518,514,0.5580328059013112
11,0,0,0,0,514,514,0.5580328059013112
12,0,0,0,0,508,508,0.038389117939077344
13,0,0,0,0,505,505,-0.2214327260420396
14,0,0,0,0,503,505,-0.2214327260420396
15,0,0,0,0,506,506,-0.1348254447150006
0,0,0,0,0,514,511,0.2982109619201943
1,0,0,0,0,511,511,0.2982109619201943
2,0,0,0,0,507,507,-0.048218163387961636
3,0,0,0,0,506,507,-0.048218163387961636
4,0,0,0,0,507,507,-0.048218163387961636
5,0,0,0,0,508,508,0.038389117939077344
6,0,0,0,0,511,511,0.2982109619201943
7,0,0,0,0,511,511,0.2982109619201943
8,0,0,0,0,508,508,0.038389117939077344
9,0,0,0,0,505,505,-0.2214327260420396
10,0,0,0,0,504,505,-0.2214327260420396
11,0,0,0,0,510,505,-0.2214327260420396
12,0,0,0,0,505,506,-0.1348254447150006
13,0,0,0,0,506,506,-0.1348254447150006
14,0,0,0,0,507,506,-0.1348254447150006
15,0,0,0,0,506,507,-0.048218163387961636
0,0,0,0,0,507,506,-0.1348254447150006
1,0,0,0,0,504,505,-0.2214327260420396
2,0,0,0,0,505,504,-0.30804000736907855
3,0,0,0,0,504,504,-0.30804000736907855
4,0,0,0,0,503,504,-0.30804000736907855
5,0,0,0,0,508,508,0.038389117939077344
6,0,0,0,0,508,508,0.038389117939077344
7,0,0,0,0,507,507,-0.048218163387961636
8,0,0,0,0,501,501,-0.5678618513501955
9,0,0,0,0,500,501,-0.5678618513501955
10,0,0,0,0,505,505,-0.2214327260420396
11,0,0,0,0,509,509,0.12499639926611632
12,0,0,0,0,513,513,0.4714255245742722
13,0,0,0,0,516,516,0.7312473685553892
14,0,0,0,0,518,516,0.7312473685553892
15,0,0,0,0,513,513,0.4714255245742722
0,0,0,0,0,509,509,0.12499639926611632
1,0,0,0,0,505,505,-0.2214327260420396
2,0,0,0,0,505,505,-0.2214327260420396
3,0,0,0,0,504,504,-0.30804000736907855
4,0,0,0,0,503,504,-0.30804000736907855
5,0,0,0,0,505,505,-0.2214327260420396
6,0,0,0,0,505,505,-0.2214327260420396
7,0,0,0,0,505,505,-0.2214327260420396
8,0,0,0,0,505,505,-0.2214327260420396
9,0,0,0,0,508,508,0.038389117939077344
10,0,0,0,0,510,510,0.2116036805931553
11,0,0,0,0,510,510,0.2116036805931553
12,0,0,0,0,510,510,0.2116036805931553
13,0,0,0,0,507,509,0.12499639926611632
14,0,0,0,0,509,509,0.12499639926611632
15,0,0,0,0,509,509,0.12499639926611632
0,0,0,0,0,507,507,-0.048218163387961636
1,0,0,0,0,507,507,-0.048218163387961636
2,0,0,0,0,506,506,-0.1348254447150006
3,0,0,0,0,505,505,-0.2214327260420396
4,0,0,0,0,504,504,-0.30804000736907855
5,0,0,0,0,504,504,-0.30804000736907855
6,0,0,0,0,506,506,-0.1348254447150006
7,0,0,0,0,512,511,0.2982109619201943
8,0,0,0,0,511,511,0.2982109619201943
9,0,0,0,0,505,505,-0.2214327260420396
10,0,0,0,0,503,504,-0.30804000736907855
11,0,0,0,0,504,503,-0.39464728869611754
12,0,0,0,0,501,504,-0.30804000736907855
13,0,0,0,0,504,504,-0.30804000736907855
14,0,0,0,0,504,504,-0.30804000736907855
15,0,0,0,0,508,508,0.038389117939077344
0,0,0,0,0,513,512,0.38481824324723324
1,0,0,0,0,512,512,0.38481824324723324
2,0,0,0,0,512,512,0.38481824324723324
3,0,0,0,0,510,512,0.38481824324723324
4,0,0,0,0,512,511,0.2982109619201943
5,0,0,0,0,511,511,0.2982109619201943
6,0,0,0,0,506,506,-0.1348254447150006
7,0,0,0,0,506,506,-0.1348254447150006
8,0,0,0,0,505,505,-0.2214327260420396
9,0,0,0,0,505,505,-0.2214327260420396
10,0,0,0,0,506,506,-0.1348254447150006
11,0,0,0,0,507,507,-0.048218163387961636
12,0,0,0,0,508,508,0.038389117939077344
13,0,0,0,0,508,508,0.038389117939077344
14,0,0,0,0,506,507,-0.048218163387961636
15,0,0,0,0,507,506,-0.1348254447150006
0,0,0,0,0,506,507,-0.048218163387961636
1,0,0,0,0,507,506,-0.1348254447150006
2,0,0,0,0,504,507,-0.048218163387961636
3,0,0,0,0,507,507,-0.048218163387961636
4,0,0,0,0,508,507,-0.048218163387961636
5,0,0,0,0,505,508,0.038389117939077344
6,0,0,0,0,510,510,0.2116036805931553
7,0,0,0,0,511,511,0.2982109619201943
8,0,0,0,0,511,511,0.2982109619201943
9,0,0,0,0,508,508,0.038389117939077344
10,0,0,0,0,508,508,0.038389117939077344
11,0,0,0,0,502,506,-0.1348254447150006
12,0,0,0,0,506,506,-0.1348254447150006
13,0,0,0,0,515,510,0.2116036805931553
14,0,0,0,0,510,510,0.2116036805931553
15,0,0,0,0,502,502,-0.4812545700231565
0,0,0,0,0,495,498,-0.8276836953313125
1,0,0,0,0,498,498,-0.8276836953313125
2,0,0,0,0,514,511,0.2982109619201943
3,0,0,0,0,511,511,0.2982109619201943
4,0,0,0,0,509,509,0.12499639926611632
5,0,0,0,0,509,509,0.12499639926611632
6,0,0,0,0,507,508,0.038389117939077344
7,0,0,0,0,508,508,0.038389117939077344
8,0,0,0,0,515,515,0.6446400872283502
9,0,0,0,0,515,515,0.6446400872283502
10,0,0,0,0,519,515,0.6446400872283502
11,0,0,0,0,509,509,0.12499639926611632
12,0,0,0,0,500,500,-0.6544691326772345
13,0,0,0,0,489,491,-1.4339346646205853
14,0,0,0,0,491,491,-1.4339346646205853
15,0,0,0,0,499,499,-0.7410764140042735
0,0,0,0,0,513,513,0.4714255245742722
1,0,0,0,0,519,516,0.7312473685553892
2,0,0,0,0,516,516,0.7312473685553892
3,0,0,0,0,510,510,0.2116036805931553
4,0,0,0,0,508,510,0.2116036805931553
5,0,0,0,0,511,508,0.038389117939077344
6,0,0,0,0,507,507,-0.048218163387961636
7,0,0,0,0,502,502,-0.4812545700231565
8,0,0,0,0,501,501,-0.5678618513501955
9,0,0,0,0,500,501,-0.5678618513501955
10,0,0,0,0,501,501,-0.5678618513501955
11,0,0,0,0,505,504,-0.30804000736907855
12,0,0,0,0,504,505,-0.2214327260420396
13,0,0,0,0,507,507,-0.048218163387961636
14,0,0,0,0,510,510,0.2116036805931553
15,0,0,0,0,511,510,0.2116036805931553
0,0,0,0,0,507,507,-0.048218163387961636
1,0,0,0,0,506,506,-0.1348254447150006
2,0,0,0,0,506,506,-0.1348254447150006
3,0,0,0,0,506,506,-0.1348254447150006
4,0,0,0,0,507,506,-0.1348254447150006
5,0,0,0,0,504,507,-0.048218163387961636
6,0,0,0,0,508,507,-0.048218163387961636
7,0,0,0,0,507,508,0.038389117939077344
8,0,0,0,0,510,507,-0.048218163387961636
9,0,0,0,0,504,507,-0.048218163387961636
10,0,0,0,0,507,507,-0.048218163387961636
11,0,0,0,0,508,508,0.038389117939077344
12,0,0,0,0,508,508,0.038389117939077344
13,0,0,0,0,508,508,0.038389117939077344
14,0,0,0,0,510,509,0.12499639926611632
15,0,0,0,0,509,509,0.12499639926611632
0,0,0,0,0,508,508,0.038389117939077344
1,0,0,0,0,507,508,0.038389117939077344
2,0,0,0,0,509,509,0.12499639926611632
3,0,0,0,0,512,509,0.12499639926611632
4,0,0,0,0,507,507,-0.048218163387961636
5,0,0,0,0,506,506,-0.1348254447150006
6,0,0,0,0,506,506,-0.1348254447150006
7,0,0,0,0,506,506,-0.1348254447150006
8,0,0,0,0,514,511,0.2982109619201943
9,0,0,0,0,511,511,0.2982109619201943
10,0,0,0,0,505,505,-0.2214327260420396
11,0,0,0,0,504,505,-0.2214327260420396
12,0,0,0,0,506,504,-0.30804000736907855
13,0,0,0,0,504,504,-0.30804000736907855
14,0,0,0,0,504,504,-0.30804000736907855
15,0,0,0,0,505,505,-0.2214327260420396
0,0,0,0,0,506,506,-0.1348254447150006
1,0,0,0,0,510,508,0.038389117939077344
2,0,0,0,0,508,508,0.038389117939077344
3,0,0,0,0,506,507,-0.048218163387961636
4,0,0,0,0,507,507,-0.048218163387961636
5,0,0,0,0,507,507,-0.048218163387961636
6,0,0,0,0,508,508,0.038389117939077344
7,0,0,0,0,508,508,0.038389117939077344
8,0,0,0,0,508,508,0.038389117939077344
9,0,0,0,0,509,508,0.038389117939077344
10,0,0,0,0,508,508,0.038389117939077344
11,0,0,0,0,506,506,-0.1348254447150006
12,0,0,0,0,506,506,-0.1348254447150006
13,0,0,0,0,504,505,-0.2214327260420396
14,0,0,0,0,505,505,-0.2214327260420396
15,0,0,0,0,508,506,-0.1348254447150006
0,0,0,0,0,506,506,-0.1348254447150006
1,0,0,0,0,504,506,-0.1348254447150006
2,0,0,0,0,507,507,-0.048218163387961636
3,0,0,0,0,507,507,-0.048218163387961636
4,0,0,0,0,509,508,0.038389117939077344
5,0,0,0,0,508,509,0.12499639926611632
6,0,0,0,0,511,511,0.2982109619201943
7,0,0,0,0,513,511,0.2982109619201943
8,0,0,0,0,510,510,0.2116036805931553
9,0,0,0,0,497,497,-0.9142909766583515
10,0,0,0,0,492,497,-0.9142909766583515
11,0,0,0,0,500,500,-0.6544691326772345
12,0,0,0,0,518,518,0.9044619312094672
13,0,0,0,0,521,518,0.9044619312094672
14,0,0,0,0,513,513,0.4714255245742722
15,0,0,0,0,509,511,0.2982109619201943
0,0,0,0,0,511,509,0.12499639926611632
1,0,0,0,0,508,508,0.038389117939077344
2,0,0,0,0,506,506,-0.1348254447150006
3,0,0,0,0,505,505,-0.2214327260420396
4,0,0,0,0,505,505,-0.2214327260420396
5,0,0,0,0,504,505,-0.2214327260420396
6,0,0,0,0,506,504,-0.30804000736907855
7,0,0,0,0,502,502,-0.4812545700231565
8,0,0,0,0,499,502,-0.4812545700231565
9,0,0,0,0,504,504,-0.30804000736907855
10,0,0,0,0,510,510,0.2116036805931553
11,0,0,0,0,516,513,0.4714255245742722
12,0,0,0,0,513,513,0.4714255245742722
13,0,0,0,0,511,511,0.2982109619201943
14,0,0,0,0,506,507,-0.048218163387961636
15,0,0,0,0,507,507,-0.048218163387961636
0,0,0,0,0,510,508,0.038389117939077344
1,0,0,0,0,508,509,0.12499639926611632
2,0,0,0,0,509,509,0.12499639926611632
3,0,0,0,0,516,511,0.2982109619201943
4,0,0,0,0,511,511,0.2982109619201943
5,0,0,0,0,505,505,-0.2214327260420396
6,0,0,0,0,502,503,-0.39464728869611754
7,0,0,0,0,503,503,-0.39464728869611754
8,0,0,0,0,503,503,-0.39464728869611754
9,0,0,0,0,505,505,-0.2214327260420396
10,0,0,0,0,508,508,0.038389117939077344
11,0,0,0,0,509,508,0.038389117939077344
12,0,0,0,0,507,509,0.12499639926611632
13,0,0,0,0,509,507,-0.048218163387961636
14,0,0,0,0,506,506,-0.1348254447150006
15,0,0,0,0,504,506,-0.1348254447150006
0,0,0,0,0,507,507,-0.048218163387961636
1,0,0,0,0,509,509,0.12499639926611632
2,0,0,0,0,511,511,0.2982109619201943
3,0,0,0,0,516,515,0.6446400872283502
4,0,0,0,0,515,515,0.6446400872283502
5,0,0,0,0,506,506,-0.1348254447150006
6,0,0,0,0,502,503,-0.39464728869611754
7,0,0,0,0,503,503,-0.39464728869611754
8,0,0,0,0,505,504,-0.30804000736907855
9,0,0,0,0,504,504,-0.30804000736907855
10,0,0,0,0,504,504,-0.30804000736907855
11,0,0,0,0,504,504,-0.30804000736907855
12,0,0,0,0,507,507,-0.048218163387961636
13,0,0,0,0,512,508,0.038389117939077344
14,0,0,0,0,508,508,0.038389117939077344
15,0,0,0,0,506,506,-0.1348254447150006
0,0,0,0,0,504,505,-0.2214327260420396
1,0,0,0,0,505,505,-0.2214327260420396
2,0,0,0,0,505,505,-0.2214327260420396
3,0,0,0,0,506,505,-0.2214327260420396
4,0,0,0,0,504,506,-0.1348254447150006
5,0,0,0,0,507,504,-0.30804000736907855
6,0,0,0,0,504,506,-0.1348254447150006
7,0,0,0,0,506,506,-0.1348254447150006
8,0,0,0,0,509,509,0.12499639926611632
9,0,0,0,0,515,509,0.12499639926611632
10,0,0,0,0,508,508,0.038389117939077344
11,0,0,0,0,505,508,0.038389117939077344
12,0,0,0,0,508,506,-0.1348254447150006
13,0,0,0,0,506,506,-0.1348254447150006
14,0,0,0,0,506,506,-0.1348254447150006
15,0,0,0,0,507,507,-0.048218163387961636
0,0,0,0,0,507,507,-0.048218163387961636
1,0,0,0,0,506,507,-0.048218163387961636
2,0,0,0,0,508,506,-0.1348254447150006
3,0,0,0,0,506,508,0.038389117939077344
4,0,0,0,0,510,510,0.2116036805931553
5,0,0,0,0,510,510,0.2116036805931553
6,0,0,0,0,508,510,0.2116036805931553
7,0,0,0,0,510,510,0.2116036805931553
8,0,0,0,0,512,510,0.2116036805931553
9,0,0,0,0,510,510,0.2116036805931553
10,0,0,0,0,505,505,-0.2214327260420396
11,0,0,0,0,504,505,-0.2214327260420396
12,0,0,0,0,507,507,-0.048218163387961636
13,0,0,0,0,510,509,0.12499639926611632
14,0,0,0,0,509,509,0.12499639926611632
15,0,0,0,0,508,508,0.038389117939077344
0,0,0,0,0,507,507,-0.048218163387961636
1,0,0,0,0,507,507,-0.048218163387961636
2,0,0,0,0,508,507,-0.048218163387961636
3,0,0,0,0,507,507,-0.048218163387961636
4,0,0,0,0,505,505,-0.2214327260420396
5,0,0,0,0,505,505,-0.2214327260420396
6,0,0,0,0,505,505,-0.2214327260420396
7,0,0,0,0,507,507,-0.048218163387961636
8,0,0,0,0,508,508,0.038389117939077344
9,0,0,0,0,508,508,0.038389117939077344
10,0,0,0,0,506,508,0.038389117939077344
11,0,0,0,0,511,508,0.038389117939077344
12,0,0,0,0,508,508,0.038389117939077344
13,0,0,0,0,508,508,0.038389117939077344
14,0,0,0,0,509,508,0.038389117939077344
15,0,0,0,0,505,505,-0.2214327260420396
0,0,0,0,0,502,504,-0.30804000736907855
1,0,0,0,0,504,504,-0.30804000736907855
2,0,0,0,0,505,505,-0.2214327260420396
3,0,0,0,0,510,510,0.2116036805931553
4,0,0,0,0,510,510,0.2116036805931553
5,0,0,0,0,510,510,0.2116036805931553
6,0,0,0,0,520,516,0.7312473685553892
7,0,0,0,0,516,516,0.7312473685553892
8,0,0,0,0,510,514,0.5580328059013112
9,0,0,0,0,514,510,0.2116036805931553
10,0,0,0,0,509,509,0.12499639926611632
11,0,0,0,0,500,500,-0.6544691326772345
12,0,0,0,0,492,492,-1.3473273832935464
13,0,0,0,0,491,492,-1.3473273832935464
14,0,0,0,0,507,507,-0.048218163387961636
15,0,0,0,0,509,508,0.038389117939077344
0,0,0,0,0,508,509,0.12499639926611632
1,0,0,0,0,510,510,0.2116036805931553
2,0,0,0,0,513,512,0.38481824324723324
3,0,0,0,0,512,512,0.38481824324723324
4,0,0,0,0,508,508,0.038389117939077344
5,0,0,0,0,508,508,0.038389117939077344
6,0,0,0,0,505,505,-0.2214327260420396
7,0,0,0,0,505,505,-0.2214327260420396
8,0,0,0,0,501,503,-0.39464728869611754
9,0,0,0,0,503,501,-0.5678618513501955
10,0,0,0,0,497,500,-0.6544691326772345
11,0,0,0,0,500,500,-0.6544691326772345
12,0,0,0,0,504,504,-0.30804000736907855
13,0,0,0,0,509,509,0.12499639926611632
14,0,0,0,0,515,509,0.12499639926611632
15,0,0,0,0,507,507,-0.048218163387961636
0,0,0,0,0,507,507,-0.048218163387961636
1,0,0,0,0,498,500,-0.6544691326772345
2,0,0,0,0,500,500,-0.6544691326772345
3,0,0,0,0,508,508,0.038389117939077344
4,0,0,0,0,523,523,1.337498337844662
5,0,0,0,0,525,525,1.51071290049874
6,0,0,0,0,525,525,1.51071290049874
7,0,0,0,0,516,516,0.7312473685553892
8,0,0,0,0,507,507,-0.048218163387961636
9,0,0,0,0,505,505,-0.2214327260420396
10,0,0,0,0,501,503,-0.39464728869611754
11,0,0,0,0,503,503,-0.39464728869611754
12,0,0,0,0,504,504,-0.30804000736907855
13,0,0,0,0,505,505,-0.2214327260420396
14,0,0,0,0,507,505,-0.2214327260420396
15,0,0,0,0,504,504,-0.30804000736907855
0,0,0,0,0,503,504,-0.30804000736907855
1,0,0,0,0,505,505,-0.2214327260420396
2,0,0,0,0,507,507,-0.048218163387961636
3,0,0,0,0,507,507,-0.048218163387961636
4,0,0,0,0,507,507,-0.048218163387961636
5,0,0,0,0,507,507,-0.048218163387961636
6,0,0,0,0,504,506,-0.1348254447150006
7,0,0,0,0,506,506,-0.1348254447150006
8,0,0,0,0,508,506,-0.1348254447150006
9,0,0,0,0,506,508,0.038389117939077344
10,0,0,0,0,508,508,0.038389117939077344
11,0,0,0,0,509,508,0.038389117939077344
12,0,0,0,0,505,505,-0.2214327260420396
13,0,0,0,0,501,505,-0.2214327260420396
14,0,0,0,0,508,506,-0.1348254447150006
15,0,0,0,0,506,507,-0.048218163387961636
0,0,0,0,0,507,506,-0.1348254447150006
1,0,0,0,0,505,507,-0.048218163387961636
2,0,0,0,0,507,507,-0.048218163387961636
3,0,0,0,0,512,512,0.38481824324723324
4,0,0,0,0,515,512,0.38481824324723324
5,0,0,0,0,510,510,0.2116036805931553
6,0,0,0,0,504,505,-0.2214327260420396
7,0,0,0,0,505,505,-0.2214327260420396
8,0,0,0,0,505,505,-0.2214327260420396
9,0,0,0,0,504,505,-0.2214327260420396
10,0,0,0,0,507,507,-0.048218163387961636
11,0,0,0,0,508,508,0.038389117939077344
12,0,0,0,0,508,508,0.038389117939077344
13,0,0,0,0,506,507,-0.048218163387961636
14,0,0,0,0,507,507,-0.048218163387961636
15,0,0,0,0,510,510,0.2116036805931553
0,0,0,0,0,511,510,0.2116036805931553
1,0,0,0,0,508,508,0.038389117939077344
2,0,0,0,0,502,505,-0.2214327260420396
3,0,0,0,0,505,505,-0.2214327260420396
4,0,0,0,0,508,506,-0.1348254447150006
5,0,0,0,0,506,508,0.038389117939077344
6,0,0,0,0,509,508,0.038389117939077344
7,0,0,0,0,508,508,0.038389117939077344
8,0,0,0,0,507,507,-0.048218163387961636
9,0,0,0,0,503,507,-0.048218163387961636
10,0,0,0,0,508,508,0.038389117939077344
11,0,0,0,0,508,508,0.038389117939077344
12,0,0,0,0,506,507,-0.048218163387961636
13,0,0,0,0,507,507,-0.048218163387961636
14,0,0,0,0,508,507,-0.048218163387961636
15,0,0,0,0,505,507,-0.048218163387961636
0,0,0,0,0,507,507,-0.048218163387961636
1,0,0,0,0,508,508,0.038389117939077344
2,0,0,0,0,508,508,0.038389117939077344
3,0,0,0,0,508,508,0.038389117939077344
4,0,0,0,0,509,508,0.038389117939077344
5,0,0,0,0,508,508,0.038389117939077344
6,0,0,0,0,507,507,-0.048218163387961636
7,0,0,0,0,504,506,-0.1348254447150006
8,0,0,0,0,506,506,-0.1348254447150006
9,0,0,0,0,507,507,-0.048218163387961636
10,0,0,0,0,508,508,0.038389117939077344
11,0,0,0,0,511,508,0.038389117939077344
12,0,0,0,0,507,507,-0.048218163387961636
13,0,0,0,0,507,507,-0.048218163387961636
14,0,0,0,0,508,507,-0.048218163387961636
15,0,0,0,0,505,506,-0.1348254447150006
0,0,0,0,0,506,505,-0.2214327260420396
1,0,0,0,0,502,504,-0.30804000736907855
2,0,0,0,0,504,504,-0.30804000736907855
3,0,0,0,0,507,507,-0.048218163387961636
4,0,0,0,0,508,507,-0.048218163387961636
5,0,0,0,0,507,508,0.038389117939077344
6,0,0,0,0,510,510,0.2116036805931553
7,0,0,0,0,519,519,0.9910692125365062
8,0,0,0,0,530,519,0.9910692125365062
9,0,0,0,0,519,519,0.9910692125365062
10,0,0,0,0,503,503,-0.39464728869611754
11,0,0,0,0,491,495,-1.0875055393124293
12,0,0,0,0,495,495,-1.0875055393124293
13,0,0,0,0,510,505,-0.2214327260420396
14,0,0,0,0,505,506,-0.1348254447150006
15,0,0,0,0,506,505,-0.2214327260420396
0,0,0,0,0,504,505,-0.2214327260420396
1,0,0,0,0,505,505,-0.2214327260420396
2,0,0,0,0,508,508,0.038389117939077344
3,0,0,0,0,508,508,0.038389117939077344
4,0,0,0,0,501,501,-0.5678618513501955
5,0,0,0,0,501,501,-0.5678618513501955
6,0,0,0,0,505,505,-0.2214327260420396
7,0,0,0,0,513,513,0.4714255245742722
8,0,0,0,0,516,515,0.6446400872283502
9,0,0,0,0,515,515,0.6446400872283502
10,0,0,0,0,515,515,0.6446400872283502
11,0,0,0,0,509,509,0.12499639926611632
12,0,0,0,0,507,509,0.12499639926611632
13,0,0,0,0,510,507,-0.048218163387961636
14,0,0,0,0,506,510,0.2116036805931553
15,0,0,0,0,510,509,0.12499639926611632
0,0,0,0,0,509,510,0.2116036805931553
1,0,0,0,0,510,509,0.12499639926611632
2,0,0,0,0,507,507,-0.048218163387961636
3,0,0,0,0,507,507,-0.048218163387961636
4,0,0,0,0,505,505,-0.2214327260420396
5,0,0,0,0,503,504,-0.30804000736907855
6,0,0,0,0,504,504,-0.30804000736907855
7,0,0,0,0,506,506,-0.1348254447150006
8,0,0,0,0,512,512,0.38481824324723324
9,0,0,0,0,516,512,0.38481824324723324
10,0,0,0,0,508,511,0.2982109619201943
11,0,0,0,0,511,508,0.038389117939077344
12,0,0,0,0,507,507,-0.048218163387961636
13,0,0,0,0,505,507,-0.048218163387961636
14,0,0,0,0,510,505,-0.2214327260420396
15,0,0,0,0,505,505,-0.2214327260420396
0,0,0,0,0,503,505,-0.2214327260420396
1,0,0,0,0,505,505,-0.2214327260420396
2,0,0,0,0,507,507,-0.048218163387961636
3,0,0,0,0,507,507,-0.048218163387961636
4,0,0,0,0,510,509,0.12499639926611632
5,0,0,0,0,509,510,0.2116036805931553
6,0,0,0,0,513,509,0.12499639926611632
7,0,0,0,0,508,508,0.038389117939077344
8,0,0,0,0,503,504,-0.30804000736907855
9,0,0,0,0,504,503,-0.39464728869611754
10,0,0,0,0,502,504,-0.30804000736907855
11,0,0,0,0,504,504,-0.30804000736907855
12,0,0,0,0,505,505,-0.2214327260420396
13,0,0,0,0,509,508,0.038389117939077344
14,0,0,0,0,508,508,0.038389117939077344
15,0,0,0,0,508,508,0.038389117939077344
0,0,0,0,0,510,510,0.2116036805931553
1,0,0,0,0,511,511,0.2982109619201943
2,0,0,0,0,512,511,0.2982109619201943
3,0,0,0,0,510,510,0.2116036805931553
4,0,0,0,0,505,505,-0.2214327260420396
5,0,0,0,0,505,505,-0.2214327260420396
6,0,0,0,0,504,504,-0.30804000736907855
7,0,0,0,0,504,504,-0.30804000736907855
8,0,0,0,0,505,505,-0.2214327260420396
9,0,0,0,0,507,505,-0.2214327260420396
10,0,0,0,0,504,507,-0.048218163387961636
11,0,0,0,0,507,506,-0.1348254447150006
12,0,0,0,0,506,507,-0.048218163387961636
13,0,0,0,0,510,510,0.2116036805931553
14,0,0,0,0,511,510,0.2116036805931553
15,0,0,0,0,509,509,0.12499639926611632
0,0,0,0,0,507,507,-0.048218163387961636
1,0,0,0,0,507,507,-0.048218163387961636
2,0,0,0,0,505,507,-0.048218163387961636
3,0,0,0,0,507,507,-0.048218163387961636
4,0,0,0,0,507,507,-0.048218163387961636
5,0,0,0,0,505,505,-0.2214327260420396
6,0,0,0,0,505,505,-0.2214327260420396
7,0,0,0,0,507,507,-0.048218163387961636
8,0,0,0,0,508,507,-0.048218163387961636
9,0,0,0,0,505,507,-0.048218163387961636
10,0,0,0,0,507,507,-0.048218163387961636
11,0,0,0,0,507,507,-0.048218163387961636
12,0,0,0,0,510,507,-0.048218163387961636
13,0,0,0,0,507,509,0.12499639926611632
14,0,0,0,0,509,509,0.12499639926611632
15,0,0,0,0,509,509,0.12499639926611632
0,0,0,0,0,509,509,0.12499639926611632
1,0,0,0,0,506,506,-0.1348254447150006
2,0,0,0,0,501,504,-0.30804000736907855
3,0,0,0,0,504,503,-0.39464728869611754
4,0,0,0,0,503,504,-0.30804000736907855
5,0,0,0,0,507,507,-0.048218163387961636
6,0,0,0,0,510,510,0.2116036805931553
7,0,0,0,0,510,510,0.2116036805931553
8,0,0,0,0,508,510,0.2116036805931553
9,0,0,0,0,514,514,0.5580328059013112
10,0,0,0,0,515,514,0.5580328059013112
11,0,0,0,0,510,510,0.2116036805931553
12,0,0,0,0,507,507,-0.048218163387961636
13,0,0,0,0,507,507,-0.048218163387961636
14,0,0,0,0,506,506,-0.1348254447150006
15,0,0,0,0,504,506,-0.1348254447150006
0,0,0,0,0,507,507,-0.048218163387961636
1,0,0,0,0,507,507,-0.048218163387961636
2,0,0,0,0,509,509,0.12499639926611632
3,0,0,0,0,514,514,0.5580328059013112
4,0,0,0,0,514,514,0.5580328059013112
5,0,0,0,0,499,499,-0.7410764140042735
6,0,0,0,0,490,490,-1.5205419459476244
7,0,0,0,0,489,490,-1.5205419459476244
8,0,0,0,0,501,501,-0.5678618513501955
9,0,0,0,0,504,504,-0.30804000736907855
10,0,0,0,0,514,514,0.5580328059013112
11,0,0,0,0,523,523,1.337498337844662
12,0,0,0,0,535,523,1.337498337844662
13,0,0,0,0,519,519,0.9910692125365062
14,0,0,0,0,507,507,-0.048218163387961636
15,0,0,0,0,503,504,-0.30804000736907855
0,0,0,0,0,504,504,-0.30804000736907855
1,0,0,0,0,505,505,-0.2214327260420396
2,0,0,0,0,512,512,0.38481824324723324
3,0,0,0,0,515,512,0.38481824324723324
4,0,0,0,0,506,506,-0.1348254447150006
5,0,0,0,0,502,503,-0.39464728869611754
6,0,0,0,0,503,502,-0.4812545700231565
7,0,0,0,0,502,503,-0.39464728869611754
8,0,0,0,0,504,504,-0.30804000736907855
9,0,0,0,0,504,504,-0.30804000736907855
10,0,0,0,0,507,504,-0.30804000736907855
11,0,0,0,0,504,504,-0.30804000736907855
12,0,0,0,0,504,504,-0.30804000736907855
13,0,0,0,0,504,504,-0.30804000736907855
14,0,0,0,0,508,508,0.038389117939077344
15,0,0,0,0,510,510,0.2116036805931553
0,0,0,0,0,514,512,0.38481824324723324
1,0,0,0,0,512,512,0.38481824324723324
2,0,0,0,0,511,511,0.2982109619201943
3,0,0,0,0,508,508,0.038389117939077344
4,0,0,0,0,507,507,-0.048218163387961636
5,0,0,0,0,507,507,-0.048218163387961636
6,0,0,0,0,505,505,-0.2214327260420396
7,0,0,0,0,503,504,-0.30804000736907855
8,0,0,0,0,504,504,-0.30804000736907855
9,0,0,0,0,505,504,-0.30804000736907855
10,0,0,0,0,504,504,-0.30804000736907855
11,0,0,0,0,503,504,-0.30804000736907855
12,0,0,0,0,504,504,-0.30804000736907855
13,0,0,0,0,504,504,-0.30804000736907855
14,0,0,0,0,505,505,-0.2214327260420396
15,0,0,0,0,509,506,-0.1348254447150006
0,0,0,0,0,506,508,0.038389117939077344
1,0,0,0,0,508,506,-0.1348254447150006
2,0,0,0,0,506,508,0.038389117939077344
3,0,0,0,0,509,509,0.12499639926611632
4,0,0,0,0,509,509,0.12499639926611632
5,0,0,0,0,510,509,0.12499639926611632
6,0,0,0,0,507,509,0.12499639926611632
7,0,0,0,0,509,509,0.12499639926611632
8,0,0,0,0,510,509,0.12499639926611632
9,0,0,0,0,507,507,-0.048218163387961636
10,0,0,0,0,506,507,-0.048218163387961636
11,0,0,0,0,509,508,0.038389117939077344
12,0,0,0,0,508,509,0.12499639926611632
13,0,0,0,0,509,509,0.12499639926611632
14,0,0,0,0,509,509,0.12499639926611632
15,0,0,0,0,504,506,-0.1348254447150006
0,0,0,0,0,506,506,-0.1348254447150006
1,0,0,0,0,509,508,0.038389117939077344
2,0,0,0,0,508,509,0.12499639926611632
3,0,0,0,0,509,508,0.038389117939077344
4,0,0,0,0,508,508,0.038389117939077344
5,0,0,0,0,505,507,-0.048218163387961636
6,0,0,0,0,507,505,-0.2214327260420396
7,0,0,0,0,505,505,-0.2214327260420396
8,0,0,0,0,504,504,-0.30804000736907855
9,0,0,0,0,504,504,-0.30804000736907855
10,0,0,0,0,507,507,-0.048218163387961636
11,0,0,0,0,510,510,0.2116036805931553
12,0,0,0,0,514,513,0.4714255245742722
13,0,0,0,0,513,513,0.4714255245742722
14,0,0,0,0,512,512,0.38481824324723324
15,0,0,0,0,509,509,0.12499639926611632
0,0,0,0,0,505,505,-0.2214327260420396
1,0,0,0,0,503,505,-0.2214327260420396
2,0,0,0,0,508,503,-0.39464728869611754
3,0,0,0,0,502,505,-0.2214327260420396
4,0,0,0,0,505,502,-0.4812545700231565
5,0,0,0,0,502,504,-0.30804000736907855
6,0,0,0,0,504,504,-0.30804000736907855
7,0,0,0,0,507,505,-0.2214327260420396
8,0,0,0,0,505,507,-0.048218163387961636
9,0,0,0,0,507,507,-0.048218163387961636
10,0,0,0,0,515,515,0.6446400872283502
11,0,0,0,0,518,515,0.6446400872283502
12,0,0,0,0,510,510,0.2116036805931553
13,0,0,0,0,504,506,-0.1348254447150006
14,0,0,0,0,506,506,-0.1348254447150006
15,0,0,0,0,507,507,-0.048218163387961636
0,0,0,0,0,507,507,-0.048218163387961636
1,0,0,0,0,507,507,-0.048218163387961636
2,0,0,0,0,506,506,-0.1348254447150006
3,0,0,0,0,506,506,-0.1348254447150006
4,0,0,0,0,505,506,-0.1348254447150006
5,0,0,0,0,510,509,0.12499639926611632
6,0,0,0,0,509,509,0.12499639926611632
7,0,0,0,0,509,509,0.12499639926611632
8,0,0,0,0,508,508,0.038389117939077344
9,0,0,0,0,505,508,0.038389117939077344
10,0,0,0,0,508,506,-0.1348254447150006
11,0,0,0,0,506,506,-0.1348254447150006
12,0,0,0,0,505,506,-0.1348254447150006
13,0,0,0,0,513,513,0.4714255245742722
14,0,0,0,0,517,513,0.4714255245742722
15,0,0,0,0,511,511,0.2982109619201943
0,0,0,0,0,501,501,-0.5678618513501955
1,0,0,0,0,494,499,-0.7410764140042735
2,0,0,0,0,499,499,-0.7410764140042735
3,0,0,0,0,508,501,-0.5678618513501955
4,0,0,0,0,501,501,-0.5678618513501955
5,0,0,0,0,501,501,-0.5678618513501955
6,0,0,0,0,507,507,-0.048218163387961636
7,0,0,0,0,508,508,0.038389117939077344
8,0,0,0,0,513,513,0.4714255245742722
9,0,0,0,0,515,515,0.6446400872283502
10,0,0,0,0,518,515,0.6446400872283502
11,0,0,0,0,513,513,0.4714255245742722
12,0,0,0,0,505,506,-0.1348254447150006
13,0,0,0,0,506,506,-0.1348254447150006
14,0,0,0,0,506,506,-0.1348254447150006
15,0,0,0,0,507,506,-0.1348254447150006
0,0,0,0,0,506,506,-0.1348254447150006
1,0,0,0,0,502,502,-0.4812545700231565
2,0,0,0,0,499,502,-0.4812545700231565
3,0,0,0,0,502,502,-0.4812545700231565
4,0,0,0,0,506,503,-0.39464728869611754
5,0,0,0,0,503,506,-0.1348254447150006
6,0,0,0,0,508,508,0.038389117939077344
7,0,0,0,0,515,515,0.6446400872283502
8,0,0,0,0,524,516,0.7312473685553892
9,0,0,0,0,516,516,0.7312473685553892
10,0,0,0,0,504,504,-0.30804000736907855
11,0,0,0,0,501,504,-0.30804000736907855
12,0,0,0,0,506,506,-0.1348254447150006
13,0,0,0,0,508,508,0.038389117939077344
14,0,0,0,0,511,511,0.2982109619201943
15,0,0,0,0,512,511,0.2982109619201943
0,0,0,0,0,509,509,0.12499639926611632
1,0,0,0,0,502,504,-0.30804000736907855
2,0,0,0,0,504,504,-0.30804000736907855
3,0,0,0,0,508,508,0.038389117939077344
4,0,0,0,0,508,508,0.038389117939077344
5,0,0,0,0,505,505,-0.2214327260420396
6,0,0,0,0,502,504,-0.30804000736907855
7,0,0,0,0,504,504,-0.30804000736907855
8,0,0,0,0,505,504,-0.30804000736907855
9,0,0,0,0,504,505,-0.2214327260420396
10,0,0,0,0,508,505,-0.2214327260420396
11,0,0,0,0,505,507,-0.048218163387961636
12,0,0,0,0,507,507,-0.048218163387961636
13,0,0,0,0,508,508,0.038389117939077344
14,0,0,0,0,508,508,0.038389117939077344
15,0,0,0,0,506,506,-0.1348254447150006
0,0,0,0,0,503,506,-0.1348254447150006
1,0,0,0,0,508,508,0.038389117939077344
2,0,0,0,0,508,508,0.038389117939077344
3,0,0,0,0,507,508,0.038389117939077344
4,0,0,0,0,508,507,-0.048218163387961636
5,0,0,0,0,506,507,-0.048218163387961636
6,0,0,0,0,507,506,-0.1348254447150006
7,0,0,0,0,504,504,-0.30804000736907855
8,0,0,0,0,502,504,-0.30804000736907855
9,0,0,0,0,505,505,-0.2214327260420396
10,0,0,0,0,509,509,0.12499639926611632
11,0,0,0,0,513,513,0.4714255245742722
12,0,0,0,0,514,513,0.4714255245742722
13,0,0,0,0,511,511,0.2982109619201943
14,0,0,0,0,511,511,0.2982109619201943
15,0,0,0,0,514,513,0.4714255245742722
0,0,0,0,0,513,513,0.4714255245742722
1,0,0,0,0,505,506,-0.1348254447150006
2,0,0,0,0,506,505,-0.2214327260420396
3,0,0,0,0,502,504,-0.30804000736907855
4,0,0,0,0,504,503,-0.39464728869611754
5,0,0,0,0,503,504,-0.30804000736907855
6,0,0,0,0,505,505,-0.2214327260420396
7,0,0,0,0,505,505,-0.2214327260420396
8,0,0,0,0,504,505,-0.2214327260420396
9,0,0,0,0,505,505,-0.2214327260420396
10,0,0,0,0,509,509,0.12499639926611632
11,0,0,0,0,514,513,0.4714255245742722
12,0,0,0,0,513,514,0.5580328059013112
13,0,0,0,0,515,513,0.4714255245742722
14,0,0,0,0,509,509,0.12499639926611632
15,0,0,0,0,504,504,-0.30804000736907855
0,0,0,0,0,504,504,-0.30804000736907855
1,0,0,0,0,502,504,-0.30804000736907855
2,0,0,0,0,506,506,-0.1348254447150006
3,0,0,0,0,506,506,-0.1348254447150006
4,0,0,0,0,507,507,-0.048218163387961636
5,0,0,0,0,508,508,0.038389117939077344
6,0,0,0,0,511,511,0.2982109619201943
7,0,0,0,0,516,511,0.2982109619201943
8,0,0,0,0,511,511,0.2982109619201943
9,0,0,0,0,509,509,0.12499639926611632
10,0,0,0,0,504,505,-0.2214327260420396
11,0,0,0,0,505,505,-0.2214327260420396
12,0,0,0,0,505,505,-0.2214327260420396
13,0,0,0,0,505,505,-0.2214327260420396
14,0,0,0,0,505,505,-0.2214327260420396
15,0,0,0,0,505,505,-0.2214327260420396
0,0,0,0,0,505,505,-0.2214327260420396
1,0,0,0,0,509,507,-0.048218163387961636
2,0,0,0,0,507,508,0.038389117939077344
3,0,0,0,0,508,508,0.038389117939077344
4,0,0,0,0,510,509,0.12499639926611632
5,0,0,0,0,509,510,0.2116036805931553
6,0,0,0,0,510,510,0.2116036805931553
7,0,0,0,0,516,514,0.5580328059013112
8,0,0,0,0,514,514,0.5580328059013112
9,0,0,0,0,509,509,0.12499639926611632
10,0,0,0,0,496,496,-1.0008982579853904
11,0,0,0,0,494,496,-1.0008982579853904
12,0,0,0,0,507,507,-0.048218163387961636
13,0,0,0,0,508,507,-0.048218163387961636
14,0,0,0,0,506,506,-0.1348254447150006
15,0,0,0,0,499,499,-0.7410764140042735
0,0,0,0,0,496,498,-0.8276836953313125
1,0,0,0,0,498,498,-0.8276836953313125
2,0,0,0,0,504,504,-0.30804000736907855
3,0,0,0,0,512,512,0.38481824324723324
4,0,0,0,0,512,512,0.38481824324723324
5,0,0,0,0,516,512,0.38481824324723324
6,0,0,0,0,512,516,0.7312473685553892
7,0,0,0,0,521,515,0.6446400872283502
8,0,0,0,0,515,515,0.6446400872283502
9,0,0,0,0,515,515,0.6446400872283502
10,0,0,0,0,514,514,0.5580328059013112
11,0,0,0,0,509,509,0.12499639926611632
12,0,0,0,0,507,507,-0.048218163387961636
13,0,0,0,0,507,507,-0.048218163387961636
14,0,0,0,0,506,506,-0.1348254447150006
15,0,0,0,0,504,504,-0.30804000736907855
0,0,0,0,0,504,504,-0.30804000736907855
1,0,0,0,0,506,505,-0.2214327260420396
2,0,0,0,0,505,505,-0.2214327260420396
3,0,0,0,0,505,505,-0.2214327260420396
4,0,0,0,0,507,505,-0.2214327260420396
5,0,0,0,0,502,507,-0.048218163387961636
6,0,0,0,0,508,505,-0.2214327260420396
7,0,0,0,0,505,507,-0.048218163387961636
8,0,0,0,0,507,505,-0.2214327260420396
9,0,0,0,0,503,507,-0.048218163387961636
10,0,0,0,0,508,508,0.038389117939077344
11,0,0,0,0,509,508,0.038389117939077344
12,0,0,0,0,507,507,-0.048218163387961636
13,0,0,0,0,506,507,-0.048218163387961636
14,0,0,0,0,507,507,-0.048218163387961636
15,0,0,0,0,507,507,-0.048218163387961636
0,0,0,0,0,510,507,-0.048218163387961636
1,0,0,0,0,506,506,-0.1348254447150006
2,0,0,0,0,503,505,-0.2214327260420396
3,0,0,0,0,505,505,-0.2214327260420396
4,0,0,0,0,509,508,0.038389117939077344
5,0,0,0,0,508,508,0.038389117939077344
6,0,0,0,0,507,508,0.038389117939077344
7,0,0,0,0,508,507,-0.048218163387961636
8,0,0,0,0,507,507,-0.048218163387961636
9,0,0,0,0,505,505,-0.2214327260420396
10,0,0,0,0,505,505,-0.2214327260420396
11,0,0,0,0,511,511,0.2982109619201943
12,0,0,0,0,514,511,0.2982109619201943
13,0,0,0,0,506,506,-0.1348254447150006
14,0,0,0,0,501,503,-0.39464728869611754
15,0,0,0,0,503,503,-0.39464728869611754
0,0,0,0,0,504,504,-0.30804000736907855
1,0,0,0,0,508,508,0.038389117939077344
2,0,0,0,0,509,509,0.12499639926611632
3,0,0,0,0,518,518,0.9044619312094672
4,0,0,0,0,518,518,0.9044619312094672
5,0,0,0,0,512,512,0.38481824324723324
6,0,0,0,0,510,510,0.2116036805931553
7,0,0,0,0,505,505,-0.2214327260420396
8,0,0,0,0,504,504,-0.30804000736907855
9,0,0,0,0,504,504,-0.30804000736907855
10,0,0,0,0,505,505,-0.2214327260420396
11,0,0,0,0,506,505,-0.2214327260420396
12,0,0,0,0,504,504,-0.30804000736907855
13,0,0,0,0,503,504,-0.30804000736907855
14,0,0,0,0,505,505,-0.2214327260420396
15,0,0,0,0,505,505,-0.2214327260420396
0,0,0,0,0,507,505,-0.2214327260420396
1,0,0,0,0,504,504,-0.30804000736907855
2,0,0,0,0,504,504,-0.30804000736907855
3,0,0,0,0,507,507,-0.048218163387961636
4,0,0,0,0,508,508,0.038389117939077344
5,0,0,0,0,511,511,0.2982109619201943
6,0,0,0,0,512,511,0.2982109619201943
7,0,0,0,0,507,507,-0.048218163387961636
8,0,0,0,0,507,507,-0.048218163387961636
9,0,0,0,0,508,508,0.038389117939077344
10,0,0,0,0,515,514,0.5580328059013112
11,0,0,0,0,514,514,0.5580328059013112
12,0,0,0,0,504,504,-0.30804000736907855
13,0,0,0,0,497,497,-0.9142909766583515
14,0,0,0,0,487,492,-1.3473273832935464
15,0,0,0,0,492,492,-1.3473273832935464
0,0,0,0,0,504,504,-0.30804000736907855
1,0,0,0,0,509,509,0.12499639926611632
2,0,0,0,0,516,516,0.7312473685553892
3,0,0,0,0,526,519,0.9910692125365062
4,0,0,0,0,519,519,0.9910692125365062
5,0,0,0,0,512,512,0.38481824324723324
6,0,0,0,0,510,510,0.2116036805931553
7,0,0,0,0,507,507,-0.048218163387961636
8,0,0,0,0,506,507,-0.048218163387961636
9,0,0,0,0,507,507,-0.048218163387961636
10,0,0,0,0,509,508,0.038389117939077344
11,0,0,0,0,508,508,0.038389117939077344
12,0,0,0,0,505,508,0.038389117939077344
13,0,0,0,0,508,505,-0.2214327260420396
14,0,0,0,0,505,506,-0.1348254447150006
15,0,0,0,0,506,505,-0.2214327260420396
0,0,0,0,0,505,506,-0.1348254447150006
1,0,0,0,0,506,505,-0.2214327260420396
2,0,0,0,0,505,506,-0.1348254447150006
3,0,0,0,0,506,506,-0.1348254447150006
4,0,0,0,0,508,506,-0.1348254447150006
5,0,0,0,0,505,505,-0.2214327260420396
6,0,0,0,0,504,505,-0.2214327260420396
7,0,0,0,0,508,507,-0.048218163387961636
8,0,0,0,0,507,508,0.038389117939077344
9,0,0,0,0,509,508,0.038389117939077344
10,0,0,0,0,508,508,0.038389117939077344
11,0,0,0,0,506,508,0.038389117939077344
12,0,0,0,0,510,509,0.12499639926611632
13,0,0,0,0,509,509,0.12499639926611632
14,0,0,0,0,508,508,0.038389117939077344
15,0,0,0,0,508,508,0.038389117939077344
0,0,0,0,0,507,507,-0.048218163387961636
1,0,0,0,0,506,506,-0.1348254447150006
2,0,0,0,0,503,503,-0.39464728869611754
3,0,0,0,0,498,501,-0.5678618513501955
4,0,0,0,0,501,501,-0.5678618513501955
5,0,0,0,0,503,503,-0.39464728869611754
6,0,0,0,0,504,504,-0.30804000736907855
7,0,0,0,0,512,512,0.38481824324723324
8,0,0,0,0,522,522,1.250891056517623
9,0,0,0,0,530,522,1.250891056517623
10,0,0,0,0,519,519,0.9910692125365062
11,0,0,0,0,507,507,-0.048218163387961636
12,0,0,0,0,504,505,-0.2214327260420396
13,0,0,0,0,505,505,-0.2214327260420396
14,0,0,0,0,506,505,-0.2214327260420396
15,0,0,0,0,504,506,-0.1348254447150006
0,0,0,0,0,506,504,-0.30804000736907855
1,0,0,0,0,502,506,-0.1348254447150006
2,0,0,0,0,506,506,-0.1348254447150006
3,0,0,0,0,509,509,0.12499639926611632
4,0,0,0,0,509,509,0.12499639926611632
5,0,0,0,0,511,509,0.12499639926611632
6,0,0,0,0,508,508,0.038389117939077344
7,0,0,0,0,505,505,-0.2214327260420396
8,0,0,0,0,504,504,-0.30804000736907855
9,0,0,0,0,503,503,-0.39464728869611754
10,0,0,0,0,503,503,-0.39464728869611754
11,0,0,0,0,499,502,-0.4812545700231565
12,0,0,0,0,502,502,-0.4812545700231565
13,0,0,0,0,504,504,-0.30804000736907855
14,0,0,0,0,504,504,-0.30804000736907855
15,0,0,0,0,509,508,0.038389117939077344
0,0,0,0,0,508,509,0.12499639926611632
1,0,0,0,0,510,510,0.2116036805931553
2,0,0,0,0,511,511,0.2982109619201943
3,0,0,0,0,511,511,0.2982109619201943
4,0,0,0,0,510,510,0.2116036805931553
5,0,0,0,0,505,507,-0.048218163387961636
6,0,0,0,0,507,507,-0.048218163387961636
7,0,0,0,0,508,507,-0.048218163387961636
8,0,0,0,0,507,508,0.038389117939077344
9,0,0,0,0,509,509,0.12499639926611632
10,0,0,0,0,515,510,0.2116036805931553
11,0,0,0,0,510,510,0.2116036805931553
12,0,0,0,0,504,506,-0.1348254447150006
13,0,0,0,0,506,505,-0.2214327260420396
14,0,0,0,0,505,506,-0.1348254447150006
15,0,0,0,0,507,507,-0.048218163387961636
0,0,0,0,0,507,507,-0.048218163387961636
1,0,0,0,0,504,505,-0.2214327260420396
2,0,0,0,0,505,505,-0.2214327260420396
3,0,0,0,0,507,507,-0.048218163387961636
4,0,0,0,0,507,507,-0.048218163387961636
5,0,0,0,0,507,507,-0.048218163387961636
6,0,0,0,0,508,507,-0.048218163387961636
7,0,0,0,0,506,507,-0.048218163387961636
8,0,0,0,0,507,507,-0.048218163387961636
9,0,0,0,0,509,509,0.12499639926611632
10,0,0,0,0,511,509,0.12499639926611632
11,0,0,0,0,509,509,0.12499639926611632
12,0,0,0,0,507,507,-0.048218163387961636
13,0,0,0,0,506,507,-0.048218163387961636
14,0,0,0,0,507,507,-0.048218163387961636
15,0,0,0,0,508,508,0.038389117939077344
0,0,0,0,0,508,508,0.038389117939077344
1,0,0,0,0,508,508,0.038389117939077344
2,0,0,0,0,509,508,0.038389117939077344
3,0,0,0,0,508,508,0.038389117939077344
4,0,0,0,0,508,508,0.038389117939077344
5,0,0,0,0,507,507,-0.048218163387961636
6,0,0,0,0,501,501,-0.5678618513501955
7,0,0,0,0,500,501,-0.5678618513501955
8,0,0,0,0,504,504,-0.30804000736907855
9,0,0,0,0,508,508,0.038389117939077344
10,0,0,0,0,517,512,0.38481824324723324
11,0,0,0,0,512,513,0.4714255245742722
12,0,0,0,0,513,512,0.38481824324723324
13,0,0,0,0,507,507,-0.048218163387961636
14,0,0,0,0,505,505,-0.2214327260420396
15,0,0,0,0,503,503,-0.39464728869611754
0,0,0,0,0,503,503,-0.39464728869611754
1,0,0,0,0,507,507,-0.048218163387961636
2,0,0,0,0,508,508,0.038389117939077344
3,0,0,0,0,513,510,0.2116036805931553
4,0,0,0,0,510,512,0.38481824324723324
5,0,0,0,0,512,511,0.2982109619201943
6,0,0,0,0,511,511,0.2982109619201943
7,0,0,0,0,511,511,0.2982109619201943
8,0,0,0,0,507,511,0.2982109619201943
9,0,0,0,0,512,512,0.38481824324723324
10,0,0,0,0,516,512,0.38481824324723324
11,0,0,0,0,509,509,0.12499639926611632
12,0,0,0,0,503,503,-0.39464728869611754
13,0,0,0,0,493,498,-0.8276836953313125
14,0,0,0,0,498,498,-0.8276836953313125
15,0,0,0,0,507,505,-0.2214327260420396
0,0,0,0,0,505,506,-0.1348254447150006
1,0,0,0,0,506,506,-0.1348254447150006
2,0,0,0,0,507,507,-0.048218163387961636
3,0,0,0,0,508,508,0.038389117939077344
4,0,0,0,0,510,509,0.12499639926611632
5,0,0,0,0,509,509,0.12499639926611632
6,0,0,0,0,508,509,0.12499639926611632
7,0,0,0,0,509,508,0.038389117939077344
8,0,0,0,0,508,508,0.038389117939077344
9,0,0,0,0,505,506,-0.1348254447150006
10,0,0,0,0,506,506,-0.1348254447150006
11,0,0,0,0,511,511,0.2982109619201943
12,0,0,0,0,511,511,0.2982109619201943
13,0,0,0,0,506,506,-0.1348254447150006
14,0,0,0,0,505,505,-0.2214327260420396
15,0,0,0,0,504,505,-0.2214327260420396
0,0,0,0,0,508,507,-0.048218163387961636
1,0,0,0,0,507,507,-0.048218163387961636
2,0,0,0,0,507,507,-0.048218163387961636
3,0,0,0,0,509,509,0.12499639926611632
4,0,0,0,0,509,509,0.12499639926611632
5,0,0,0,0,508,508,0.038389117939077344
6,0,0,0,0,508,508,0.038389117939077344
7,0,0,0,0,509,509,0.12499639926611632
8,0,0,0,0,509,509,0.12499639926611632
9,0,0,0,0,506,506,-0.1348254447150006
10,0,0,0,0,503,504,-0.30804000736907855
11,0,0,0,0,504,504,-0.30804000736907855
12,0,0,0,0,505,505,-0.2214327260420396
13,0,0,0,0,507,507,-0.048218163387961636
14,0,0,0,0,508,507,-0.048218163387961636
15,0,0,0,0,506,507,-0.048218163387961636
0,0,0,0,0,507,506,-0.1348254447150006
1,0,0,0,0,504,505,-0.2214327260420396
2,0,0,0,0,505,505,-0.2214327260420396
3,0,0,0,0,508,506,-0.1348254447150006
4,0,0,0,0,506,508,0.038389117939077344
5,0,0,0,0,508,506,-0.1348254447150006
6,0,0,0,0,505,508,0.038389117939077344
7,0,0,0,0,509,507,-0.048218163387961636
8,0,0,0,0,507,507,-0.048218163387961636
9,0,0,0,0,506,507,-0.048218163387961636
10,0,0,0,0,508,508,0.038389117939077344
11,0,0,0,0,519,518,0.9044619312094672
12,0,0,0,0,518,518,0.9044619312094672
13,0,0,0,0,508,508,0.038389117939077344
14,0,0,0,0,506,508,0.038389117939077344
15,0,0,0,0,509,509,0.12499639926611632
0,0,0,0,0,509,509,0.12499639926611632
1,0,0,0,0,508,508,0.038389117939077344
2,0,0,0,0,504,504,-0.30804000736907855
3,0,0,0,0,503,504,-0.30804000736907855
4,0,0,0,0,504,503,-0.39464728869611754
5,0,0,0,0,503,503,-0.39464728869611754
6,0,0,0,0,503,503,-0.39464728869611754
7,0,0,0,0,505,505,-0.2214327260420396
8,0,0,0,0,506,506,-0.1348254447150006
9,0,0,0,0,509,509,0.12499639926611632
